EMG Sensor 0
0.0
0.0
0.0
0.0
0.0
0.0
0.0
0.0
0.0
0.0
0.0
0.0
0.0
0.0
0.0
0.0
0.0
0.0
0.0
0.0
0.0
0.0
0.0
0.0
0.0
0.0
0.0
0.0
0.0
0.0
0.0
0.0
0.0
0.0
0.0
0.0
0.0
0.0
0.0
0.0
0.0
0.0
0.0
0.0
0.0
0.0
0.0
0.0
0.0
0.0
0.0
0.0
0.0
0.0
0.0
0.0
0.0
0.0
0.0
0.0
0.0
0.0
0.0
0.0
0.0
0.0
0.0
0.0
0.0
0.0
0.0
0.0
0.0
0.0
0.0
0.0
0.0
0.0
0.0
0.0
0.0
0.0
0.0
0.0
0.0
0.0
0.0
0.0
0.0
0.0
0.0
0.0
0.0
0.0
0.0
0.0
0.0
0.0
0.0
0.0
0.0
0.0
0.0
0.0
0.0
0.0
0.0
0.0
0.0
0.0
0.0
0.0
0.0
0.0
0.0
0.0
0.0
0.0
0.0
0.0
0.0
0.0
0.0
0.0
0.0
0.0
0.0
0.0
0.0
0.0
0.0
0.0
0.0
0.0
0.0
0.0
0.0
0.0
0.0
0.0
0.0
0.0
0.0
0.0
0.0
0.0
0.0
0.0
0.0
0.0
0.0
0.0
0.0
0.0
0.0
0.0
0.0
0.0
0.0
0.0
0.0
0.0
0.0
0.0
0.0
0.0
0.0
0.0
0.0
0.0
0.0
0.0
0.0
0.0
0.0
0.0
0.0
0.0
0.0
0.0
0.0
0.0
0.0
0.0
0.0
0.0
0.0
0.0
0.0
0.0
0.0
0.0
0.0
0.0
0.0
0.0
0.0
0.0
0.0
0.0
0.0
0.0
0.0
0.0
0.0
0.0
0.0
0.0
0.0
0.0
0.0
0.0
0.0
0.0
0.0
0.0
0.0
0.0
0.0
0.0
0.0
0.0
0.0
0.0
0.0
0.0
0.0
0.0
0.0
0.0
0.0
0.0
0.0
0.0
0.0
0.0
0.0
0.0
0.0
0.0
0.0
0.0
0.0
0.0
0.0
0.0
0.0
0.0
0.0
0.0
0.0
0.0
0.0
0.0
0.0
0.0
0.0
0.0
0.0
0.0
0.0
0.0
0.0
0.0
0.0
0.0
0.0
0.0
0.0
0.0
0.0
0.0
0.0
0.0
0.0
0.0
0.0
0.0
0.0
0.0
0.0
0.0
0.0
0.0
0.0
0.0
0.0
0.0
0.0
0.0
0.0
0.0
0.0
0.0
0.0
0.0
0.0
0.0
0.0
0.0
0.0
0.0
0.0
0.0
0.0
0.0
0.0
0.0
0.0
0.0
0.0
0.0
0.0
0.0
0.0
0.0
0.0
0.0
0.0
0.0
0.0
0.0
0.0
0.0
0.0
0.0
0.0
0.0
0.0
0.0
0.0
0.0
0.0
0.0
0.0
0.0
0.0
0.0
0.0
0.0
0.0
0.0
0.0
0.0
0.0
0.0
0.0
0.0
0.0
0.0
0.0
0.0
0.0
0.0
0.0
0.0
0.0
0.0
0.0
0.0
0.0
0.0
0.0
0.0
0.0
0.0
0.0
0.0
0.0
0.0
0.0
0.0
0.0
0.0
0.0
0.0
0.0
0.0
0.0
0.0
0.0
0.0
0.0
0.0
0.0
0.0
0.0
0.0
0.0
0.0
0.0
0.0
0.0
0.0
0.0
0.0
0.0
0.0
0.0
0.0
0.0
0.0
0.0
0.0
0.0
0.0
0.0
0.0
0.0
0.0
0.0
0.0
0.0
0.0
0.0
0.0
0.0
0.0
0.0
0.0
0.0
0.0
0.0
0.0
0.0
0.0
0.0
0.0
0.0
0.0
0.0
0.0
0.0
0.0
0.0
0.0
0.0
0.0
0.0
0.0
0.0
0.0
0.0
0.0
0.0
0.0
0.0
0.0
0.0
0.0
0.0
0.0
0.0
0.0
0.0
0.0
0.0
0.0
0.0
0.0
0.0
0.0
0.0
0.0
0.0
0.0
0.0
0.0
0.0
0.0
0.0
0.0
0.0
0.0
0.0
0.0
0.0
0.0
0.0
0.0
0.0
0.0
0.0
0.0
0.0
0.0
0.0
0.0
0.0
0.0
0.0
0.0
0.0
0.0
0.0
0.0
0.0
0.0
0.0
0.0
0.0
0.0
0.0
0.0
0.0
0.0
0.0
0.0
0.0
0.0
0.0
0.0
0.0
0.0
0.0
0.0
0.0
0.0
0.0
0.0
0.04682993820096131
0.03776607919432364
0.029709315632867935
0.032730601968413826
0.03743038071259632
0.022323949034866862
0.0052033264667734795
0.0008392462043183033
-0.011917296101319903
-0.041123064011596856
-0.0481727321278706
-0.03508049134050507
-0.028366521705958644
-0.028366521705958644
-0.033066300450141146
-0.041962310215915156
-0.05354390783550774
-0.058075837338826576
-0.049851224536507206
-0.03743038071259632
-0.027359426260776684
-0.025680933852140077
-0.029205767910276948
-0.02333104448004883
-0.01560997940032044
-0.0021820401312275884
0.01326009002822919
0.01846341649500267
0.01896696421759365
0.016617074845502403
0.009231708247501335
0.005874723430228122
0.006378271152819104
0.005874723430228122
0.004867627985046159
-0.0052033264667734795
-0.012588693064774548
-0.010574502174410621
-0.012420843823910887
-0.021652552071412222
-0.03105210955977722
-0.03810177767605096
-0.043472953383688104
-0.05270466163118945
-0.056900892652780956
-0.054551003280689715
-0.05253681239032577
-0.06025787747005417
-0.07335011825741969
-0.07066453040360113
-0.054551003280689715
-0.04213015945677882
-0.03608758678568704
-0.0323949034866865
-0.029037918669413288
-0.03105210955977722
-0.03978027008468757
-0.027359426260776684
0.0025177386129549098
0.01695277332722972
0.006546120393682764
-0.01560997940032044
-0.01829556725413901
0.0011749446860456242
0.0213168535896849
0.027695124742504008
0.026352330815594724
0.011917296101319903
-0.005874723430228122
-0.010238803692683297
-0.0055390249485008005
-0.004531929503318838
-0.010910200656137941
-0.03776607919432364
-0.06126497291523613
-0.053208209353780414
-0.03675898374914168
-0.030380712596322572
-0.030380712596322572
-0.030380712596322572
-0.030380712596322572
-0.041123064011596856
-0.054551003280689715
-0.050522621499961846
-0.033066300450141146
-0.014938582436865796
-0.006210421911955443
-0.01359578850995651
-0.014938582436865796
0.0025177386129549098
0.024673838406958113
0.03910887312123293
0.048844129091325246
0.0387731746395056
0.020477607385366595
0.019974059662775615
0.033401998931868467
0.049851224536507206
0.05589379720759898
0.03675898374914168
0.00788891432059205
0.0016784924086366065
0.007217517357137408
0.005874723430228122
-0.006210421911955443
-0.02719157701991302
-0.03508049134050507
-0.04313725490196078
-0.06092927443350881
-0.05555809872587166
-0.044480048828870064
-0.043808651865415424
-0.04582284275577936
-0.06596475165941862
-0.07435721370260165
-0.05438315403982604
-0.0323949034866865
-0.01695277332722972
-0.004531929503318838
-0.006881818875410085
-0.006881818875410085
0.009903105210955977
0.026352330815594724
0.030380712596322572
0.026352330815594724
0.012588693064774548
-0.0015106431677729458
0.003189135576409552
0.02333104448004883
0.03944457160296025
0.04078736552986953
0.033066300450141146
0.030045014114595252
0.0260166323338674
0.00788891432059205
-0.005706874189364461
-0.010574502174410621
-0.007553215838864729
-0.01359578850995651
-0.03944457160296025
-0.052368963149462114
-0.04313725490196078
-0.030045014114595252
-0.028366521705958644
-0.03205920500495917
-0.037094682230869
-0.03927672236209659
-0.033234149691004806
-0.017792019531548024
-0.007553215838864729
-0.001846341649500267
-0.0055390249485008005
-0.01560997940032044
-0.004867627985046159
0.016617074845502403
0.02333104448004883
0.025345235370412753
0.030716411078049892
0.03440909437705043
0.025345235370412753
0.011917296101319903
0.01829556725413901
0.032730601968413826
0.041123064011596856
0.03474479285877775
0.0011749446860456242
-0.030045014114595252
-0.03440909437705043
-0.026352330815594724
-0.014435034714274816
-0.012252994583047227
-0.02668802929732204
-0.044815747310597384
-0.041794460975051496
-0.028366521705958644
-0.02652018005645838
-0.03843747615777828
-0.06092927443350881
-0.06915388723582817
-0.04783703364614328
-0.027695124742504008
-0.016617074845502403
-0.007553215838864729
0.0008392462043183033
0.011917296101319903
0.009231708247501335
-0.00016784924086366064
0.007553215838864729
0.014602883955138474
0.01594567788204776
0.020645456626230255
0.017959868772411687
0.017624170290684367
0.030045014114595252
0.04615854123750667
0.05555809872587166
0.056900892652780956
0.03978027008468757
0.01376363775082017
0.004867627985046159
0.009903105210955977
0.01292439154650187
0.0052033264667734795
-0.01628137636377508
-0.03440909437705043
-0.03508049134050507
-0.027695124742504008
-0.020645456626230255
-0.014099336232547494
-0.010574502174410621
-0.012588693064774548
-0.022995345998321506
-0.02937361715114061
-0.021820401312275882
-0.0055390249485008005
0.009231708247501335
0.014267185473411156
-0.0015106431677729458
-0.01560997940032044
-0.006378271152819104
0.013092240787365528
0.028702220187685965
0.030716411078049892
0.017792019531548024
0.0052033264667734795
0.008896009765774012
0.01829556725413901
0.02265964751659419
0.02265964751659419
0.009903105210955977
-0.006881818875410085
-0.0055390249485008005
0.004867627985046159
0.005874723430228122
-0.008560311284046692
-0.02400244144350347
-0.030045014114595252
-0.041123064011596856
-0.057572289616235596
-0.051361867704280154
-0.03407339589532311
-0.025680933852140077
-0.025680933852140077
-0.03776607919432364
-0.04649423971923399
-0.03373769741359579
-0.01560997940032044
-0.0028534370946822307
0.009231708247501335
0.010238803692683297
0.010574502174410621
0.023834592202639806
0.035751888303959714
0.03675898374914168
0.03474479285877775
0.02668802929732204
0.017959868772411687
0.018631265735866327
0.03105210955977722
0.04666208896009766
0.050186923018234526
0.04011596856641489
0.019302662699320974
-0.01560997940032044
-0.049851224536507206
-0.05119401846341649
-0.03407339589532311
-0.021652552071412222
-0.0213168535896849
-0.035751888303959714
-0.04917982757305257
-0.04716563668268864
-0.03978027008468757
-0.035919737544823374
-0.03508049134050507
-0.044815747310597384
-0.050019073777370866
-0.041794460975051496
-0.021988250553139542
-0.0008392462043183033
0.019638361181048294
0.018631265735866327
-0.004196231021591517
-0.006210421911955443
0.020981155107957578
0.04750133516441596
0.053208209353780414
0.044815747310597384
0.04682993820096131
0.04078736552986953
0.0213168535896849
0.01527428091859312
0.027359426260776684
0.0323949034866865
0.017288471808957043
-0.01359578850995651
-0.03776607919432364
-0.035751888303959714
-0.022323949034866862
-0.01560997940032044
-0.01829556725413901
-0.03373769741359579
-0.042801556420233464
-0.029709315632867935
-0.021652552071412222
-0.0213168535896849
-0.020645456626230255
-0.03205920500495917
-0.041794460975051496
-0.027023727779049357
0.0025177386129549098
0.01896696421759365
0.017288471808957043
0.022995345998321506
0.035751888303959714
0.035416189822232394
0.02265964751659419
0.0213168535896849
0.03205920500495917
0.04649423971923399
0.05085831998168917
0.030045014114595252
0.010238803692683297
0.014267185473411156
0.02584878309300374
0.03172350652323186
0.033066300450141146
0.017624170290684367
-0.0021820401312275884
-0.008560311284046692
-0.011917296101319903
-0.0213168535896849
-0.029709315632867935
-0.04515144579232471
-0.06092927443350881
-0.05522240024414436
-0.04582284275577936
-0.043808651865415424
-0.042465857938506144
-0.03440909437705043
-0.022323949034866862
-0.021820401312275882
-0.027023727779049357
-0.018631265735866327
-0.0008392462043183033
0.01695277332722972
0.0260166323338674
0.007217517357137408
-0.0055390249485008005
0.011245899137865261
0.03810177767605096
0.05354390783550774
0.05337605859464408
0.03978027008468757
0.020981155107957578
0.017792019531548024
0.02265964751659419
0.025009536888685433
0.020645456626230255
-0.003860532539864194
-0.03743038071259632
-0.041794460975051496
-0.029709315632867935
-0.022995345998321506
-0.022323949034866862
-0.024673838406958113
-0.0260166323338674
-0.036423285267414354
-0.05387960631723506
-0.058075837338826576
-0.04682993820096131
-0.022995345998321506
-0.011245899137865261
-0.03105210955977722
-0.043472953383688104
-0.020309758144502935
0.009063859006637675
0.018631265735866327
0.019974059662775615
0.017624170290684367
0.01560997940032044
0.021988250553139542
0.030716411078049892
0.03440909437705043
0.03407339589532311
0.020309758144502935
0.0021820401312275884
0.00788891432059205
0.028366521705958644
0.033401998931868467
0.02668802929732204
0.022995345998321506
0.013931486991683832
-0.017624170290684367
-0.04783703364614328
-0.049851224536507206
-0.03776607919432364
-0.020309758144502935
-0.007217517357137408
-0.025680933852140077
-0.04750133516441596
-0.043305104142824444
-0.025680933852140077
-0.009567406729228655
-0.004531929503318838
-0.01628137636377508
-0.024673838406958113
-0.010910200656137941
0.01326009002822919
0.029877164873731592
0.03407339589532311
0.018631265735866327
0.0005035477225909818
0.00788891432059205
0.03138780804150454
0.04632639047837033
0.054551003280689715
0.05488670176241703
0.04548714427405204
0.02668802929732204
0.0052033264667734795
0.003860532539864194
0.011917296101319903
0.01527428091859312
0.008560311284046692
-0.022323949034866862
-0.04783703364614328
-0.042465857938506144
-0.029037918669413288
-0.026352330815594724
-0.025009536888685433
-0.029037918669413288
-0.035751888303959714
-0.028030823224231328
-0.01829556725413901
-0.01292439154650187
-0.006546120393682764
-0.007553215838864729
-0.007553215838864729
0.009735255970092317
0.02668802929732204
0.03172350652323186
0.03860532539864195
0.0481727321278706
0.051361867704280154
0.03608758678568704
0.017288471808957043
0.0157778286411841
0.02937361715114061
0.04615854123750667
0.050186923018234526
0.026352330815594724
0.007553215838864729
0.010574502174410621
0.017959868772411687
0.017288471808957043
0.010238803692683297
-0.008896009765774012
-0.028366521705958644
-0.027359426260776684
-0.01359578850995651
-0.003860532539864194
-0.006881818875410085
-0.027359426260776684
-0.0528725108720531
-0.049851224536507206
-0.03172350652323186
-0.020981155107957578
-0.018631265735866327
-0.011581597619592583
0.0005035477225909818
-0.001846341649500267
-0.011245899137865261
0.004867627985046159
0.032730601968413826
0.04750133516441596
0.042465857938506144
0.013931486991683832
-0.007553215838864729
-0.0028534370946822307
0.012252994583047227
0.025009536888685433
0.025345235370412753
0.004867627985046159
-0.011581597619592583
-0.0015106431677729458
0.010574502174410621
0.0023498893720912484
-0.009567406729228655
-0.021652552071412222
-0.040451667048142216
-0.041794460975051496
-0.028366521705958644
-0.017959868772411687
-0.019302662699320974
-0.02400244144350347
-0.028702220187685965
-0.043976501106279084
-0.05589379720759898
-0.04716563668268864
-0.03508049134050507
-0.02366674296177615
-0.01359578850995651
-0.01628137636377508
-0.014938582436865796
-0.00016784924086366064
0.014602883955138474
0.0260166323338674
0.035751888303959714
0.028030823224231328
0.017624170290684367
0.024505989166094453
0.03810177767605096
0.04917982757305257
0.0481727321278706
0.030045014114595252
0.010574502174410621
0.007217517357137408
0.01527428091859312
0.021820401312275882
0.014602883955138474
0.0011749446860456242
-0.004867627985046159
-0.014938582436865796
-0.03189135576409552
-0.03508049134050507
-0.019638361181048294
-0.007217517357137408
-0.012252994583047227
-0.041123064011596856
-0.060593575951781484
-0.04783703364614328
-0.02333104448004883
-0.0028534370946822307
0.013931486991683832
0.021652552071412222
0.021652552071412222
0.03205920500495917
0.0528725108720531
0.06260776684214542
0.06361486228732739
0.050019073777370866
0.02668802929732204
0.025009536888685433
0.03810177767605096
0.042465857938506144
0.04649423971923399
0.051865415426871134
0.051529716945143814
0.03256275272755016
0.003692683299000534
-0.004867627985046159
0.006546120393682764
0.01846341649500267
0.017624170290684367
-0.01376363775082017
-0.0426337071793698
-0.03407339589532311
-0.01326009002822919
-0.01359578850995651
-0.024338139925230793
-0.03608758678568704
-0.041123064011596856
-0.03508049134050507
-0.022323949034866862
-0.008896009765774012
0.0025177386129549098
0.0025177386129549098
-0.004867627985046159
0.006210421911955443
0.02668802929732204
0.042465857938506144
0.049515526054779886
0.050522621499961846
0.05354390783550774
0.0426337071793698
0.020645456626230255
0.014602883955138474
0.021988250553139542
0.035416189822232394
0.03944457160296025
0.010574502174410621
-0.01560997940032044
-0.007385366598001068
0.005874723430228122
0.0025177386129549098
-0.010574502174410621
-0.023834592202639806
-0.030380712596322572
-0.022995345998321506
-0.017959868772411687
-0.0213168535896849
-0.022995345998321506
-0.035751888303959714
-0.05387960631723506
-0.04716563668268864
-0.028366521705958644
-0.012420843823910887
-0.004196231021591517
0.00788891432059205
0.020645456626230255
0.01628137636377508
0.0008392462043183033
0.0016784924086366065
0.016617074845502403
0.03508049134050507
0.043305104142824444
0.0260166323338674
0.01527428091859312
0.02668802929732204
0.04129091325246051
0.04682993820096131
0.052201113908598454
0.03474479285877775
0.004531929503318838
-0.006881818875410085
-0.007217517357137408
-0.008224612802319372
-0.012588693064774548
-0.0260166323338674
-0.04011596856641489
-0.03776607919432364
-0.03105210955977722
-0.027023727779049357
-0.026352330815594724
-0.030380712596322572
-0.03172350652323186
-0.044480048828870064
-0.057236591134508276
-0.03860532539864195
-0.009231708247501335
0.005874723430228122
0.011917296101319903
0.0011749446860456242
-0.004196231021591517
0.01326009002822919
0.0260166323338674
0.030380712596322572
0.029709315632867935
0.019806210421911954
0.013931486991683832
0.02333104448004883
0.032730601968413826
0.040451667048142216
0.04011596856641489
0.02265964751659419
-0.004196231021591517
-0.008896009765774012
-0.0003356984817273213
0.004196231021591517
0.0011749446860456242
-0.009231708247501335
-0.016617074845502403
-0.022323949034866862
-0.032730601968413826
-0.03978027008468757
-0.037094682230869
-0.029709315632867935
-0.029709315632867935
-0.04515144579232471
-0.05421530479896238
-0.043808651865415424
-0.01829556725413901
0.006210421911955443
0.019974059662775615
0.019974059662775615
0.01527428091859312
0.021820401312275882
0.02937361715114061
0.03054856183718624
0.028030823224231328
0.017792019531548024
0.007049668116273747
0.017120622568093383
0.03675898374914168
0.04649423971923399
0.04078736552986953
0.028030823224231328
0.013931486991683832
-0.010910200656137941
-0.037094682230869
-0.041794460975051496
-0.03440909437705043
-0.022995345998321506
-0.01628137636377508
-0.03508049134050507
-0.05589379720759898
-0.048844129091325246
-0.027359426260776684
-0.019974059662775615
-0.020981155107957578
-0.029205767910276948
-0.03474479285877775
-0.020645456626230255
-0.00016784924086366064
0.011245899137865261
0.016617074845502403
0.00788891432059205
-0.0028534370946822307
0.005874723430228122
0.020645456626230255
0.027023727779049357
0.029037918669413288
0.03407339589532311
0.04011596856641489
0.03843747615777828
0.025345235370412753
0.025009536888685433
0.03810177767605096
0.04750133516441596
0.04011596856641489
0.00788891432059205
-0.019638361181048294
-0.027695124742504008
-0.02366674296177615
-0.019638361181048294
-0.017624170290684367
-0.027023727779049357
-0.03843747615777828
-0.035919737544823374
-0.027862973983367664
-0.017792019531548024
-0.01594567788204776
-0.030380712596322572
-0.040451667048142216
-0.02366674296177615
-0.004867627985046159
0.0011749446860456242
0.0025177386129549098
0.009231708247501335
0.017959868772411687
0.01628137636377508
0.006881818875410085
0.014602883955138474
0.029037918669413288
0.03843747615777828
0.04145876249332417
0.021652552071412222
0.007721065079728388
0.022323949034866862
0.04213015945677882
0.043808651865415424
0.030045014114595252
0.006881818875410085
-0.010238803692683297
-0.01359578850995651
-0.010406652933546959
-0.012420843823910887
-0.022995345998321506
-0.03910887312123293
-0.05488670176241703
-0.05085831998168917
-0.029205767910276948
-0.010910200656137941
-0.0055390249485008005
-0.009231708247501335
-0.01695277332722972
-0.027023727779049357
-0.0323949034866865
-0.016617074845502403
0.0055390249485008005
0.01527428091859312
0.020309758144502935
0.006546120393682764
-0.004196231021591517
0.01359578850995651
0.040451667048142216
0.0528725108720531
0.06025787747005417
0.05958648050659952
0.04615854123750667
0.03944457160296025
0.04582284275577936
0.049515526054779886
0.043472953383688104
0.0260166323338674
0.0055390249485008005
0.0035248340581368735
0.0023498893720912484
-0.003189135576409552
-0.007049668116273747
-0.008560311284046692
-0.009567406729228655
-0.0260166323338674
-0.04716563668268864
-0.04649423971923399
-0.029037918669413288
-0.010910200656137941
-0.008224612802319372
-0.029709315632867935
-0.04313725490196078
-0.029037918669413288
-0.005874723430228122
0.013092240787365528
0.02584878309300374
0.0213168535896849
0.01527428091859312
0.02265964751659419
0.030716411078049892
0.03860532539864195
0.03978027008468757
0.022323949034866862
0.004531929503318838
0.009231708247501335
0.02400244144350347
0.033401998931868467
0.029037918669413288
0.011581597619592583
-0.0008392462043183033
-0.014267185473411156
-0.03205920500495917
-0.03105210955977722
-0.021149004348821242
-0.017959868772411687
-0.024338139925230793
-0.050186923018234526
-0.06462195773250935
-0.04750133516441596
-0.028366521705958644
-0.021652552071412222
-0.016784924086366067
-0.020981155107957578
-0.026352330815594724
-0.01628137636377508
0.001846341649500267
0.016449225604638743
0.023834592202639806
0.0157778286411841
0.007553215838864729
0.022995345998321506
0.03944457160296025
0.04548714427405204
0.048844129091325246
0.050186923018234526
0.04615854123750667
0.03440909437705043
0.018631265735866327
0.009231708247501335
0.008560311284046692
0.009903105210955977
0.0011749446860456242
-0.029037918669413288
-0.050690470740825506
-0.049851224536507206
-0.04313725490196078
-0.03407339589532311
-0.026352330815594724
-0.03810177767605096
-0.051361867704280154
-0.04515144579232471
-0.030380712596322572
-0.01913481345845731
-0.011078049897001601
-0.021652552071412222
-0.035751888303959714
-0.025680933852140077
0.003189135576409552
0.0260166323338674
0.033066300450141146
0.03608758678568704
0.03474479285877775
0.022995345998321506
0.006546120393682764
0.005874723430228122
0.025345235370412753
0.048844129091325246
0.05421530479896238
0.02584878309300374
0.0005035477225909818
0.007217517357137408
0.01829556725413901
0.014938582436865796
0.004196231021591517
-0.010238803692683297
-0.020645456626230255
-0.014602883955138474
-0.004196231021591517
-0.0035248340581368735
-0.014267185473411156
-0.03910887312123293
-0.057236591134508276
-0.050186923018234526
-0.041123064011596856
-0.037094682230869
-0.028702220187685965
-0.013931486991683832
-0.00016784924086366064
0.0021820401312275884
-0.0055390249485008005
-0.005874723430228122
0.010574502174410621
0.03608758678568704
0.04750133516441596
0.03121995880064088
0.017288471808957043
0.032730601968413826
0.058915083543144876
0.07066453040360113
0.06697184710460058
0.04716563668268864
0.02937361715114061
0.030716411078049892
0.035416189822232394
0.0260166323338674
0.01594567788204776
-0.005874723430228122
-0.0387731746395056
-0.041794460975051496
-0.021149004348821242
-0.010910200656137941
-0.019302662699320974
-0.029037918669413288
-0.03189135576409552
-0.03776607919432364
-0.04750133516441596
-0.049851224536507206
-0.03910887312123293
-0.02265964751659419
-0.008896009765774012
-0.01829556725413901
-0.026352330815594724
-0.003189135576409552
0.029877164873731592
0.042801556420233464
0.03474479285877775
0.013931486991683832
0.008560311284046692
0.023163195239185166
0.0379339284351873
0.0387731746395056
0.029709315632867935
0.01292439154650187
0.0030212863355458916
0.01359578850995651
0.01628137636377508
0.005874723430228122
0.0008392462043183033
-0.001846341649500267
-0.0008392462043183033
-0.010910200656137941
-0.0323949034866865
-0.03810177767605096
-0.02366674296177615
-0.006210421911955443
-0.012588693064774548
-0.04716563668268864
-0.06730754558632791
-0.0528725108720531
-0.029709315632867935
-0.014938582436865796
-0.00788891432059205
-0.008392462043183033
-0.006210421911955443
0.0052033264667734795
0.02366674296177615
0.03675898374914168
0.042801556420233464
0.03474479285877775
0.01695277332722972
0.016617074845502403
0.027695124742504008
0.03743038071259632
0.044480048828870064
0.048844129091325246
0.04682993820096131
0.027359426260776684
0.0052033264667734795
0.003860532539864194
0.012588693064774548
0.009735255970092317
-0.0028534370946822307
-0.02366674296177615
-0.037094682230869
-0.03659113450827802
-0.0323949034866865
-0.029709315632867935
-0.027359426260776684
-0.03105210955977722
-0.036423285267414354
-0.024505989166094453
-0.004196231021591517
0.0021820401312275884
0.0052033264667734795
0.006546120393682764
0.0023498893720912484
0.010238803692683297
0.0260166323338674
0.03474479285877775
0.0323949034866865
0.024338139925230793
0.0213168535896849
0.011749446860456245
0.0016784924086366065
0.01326009002822919
0.03189135576409552
0.037262531471732654
0.02853437094682231
0.010574502174410621
0.003860532539864194
0.008560311284046692
0.009735255970092317
0.0052033264667734795
0.001846341649500267
-0.017624170290684367
-0.044647898069733724
-0.04078736552986953
-0.01846341649500267
-0.007553215838864729
-0.01359578850995651
-0.03659113450827802
-0.06126497291523613
-0.05656519417105363
-0.03390554665445944
-0.018631265735866327
-0.011581597619592583
0.0028534370946822307
0.0213168535896849
0.021652552071412222
0.003860532539864194
-0.0021820401312275884
0.010910200656137941
0.030716411078049892
0.03978027008468757
0.021820401312275882
0.0055390249485008005
0.012588693064774548
0.033066300450141146
0.043808651865415424
0.04213015945677882
0.03138780804150454
0.02400244144350347
0.0260166323338674
0.019974059662775615
0.01292439154650187
0.00788891432059205
-0.01628137636377508
-0.04531929503318838
-0.048508430609597926
-0.03810177767605096
-0.0323949034866865
-0.03105210955977722
-0.033066300450141146
-0.035751888303959714
-0.03910887312123293
-0.04548714427405204
-0.04145876249332417
-0.025009536888685433
-0.0055390249485008005
0.0052033264667734795
-0.007553215838864729
-0.014435034714274816
0.0008392462043183033
0.020477607385366595
0.03054856183718624
0.030716411078049892
0.01896696421759365
0.014267185473411156
0.020645456626230255
0.020645456626230255
0.01527428091859312
0.012252994583047227
0.0011749446860456242
-0.017624170290684367
-0.017959868772411687
-0.006210421911955443
-0.007553215838864729
-0.020645456626230255
-0.030045014114595252
-0.03105210955977722
-0.040451667048142216
-0.05387960631723506
-0.049851224536507206
-0.04078736552986953
-0.0323949034866865
-0.029709315632867935
-0.049851224536507206
-0.060593575951781484
-0.043808651865415424
-0.01594567788204776
0.00788891432059205
0.01527428091859312
0.009231708247501335
0.011917296101319903
0.033234149691004806
0.05354390783550774
0.057236591134508276
0.048676279850461586
0.033401998931868467
0.02333104448004883
0.028702220187685965
0.03810177767605096
0.04548714427405204
0.049347676813916226
0.04531929503318838
0.03843747615777828
0.02937361715114061
0.011245899137865261
-0.004196231021591517
-0.0055390249485008005
-0.003860532539864194
-0.013931486991683832
-0.03776607919432364
-0.04716563668268864
-0.035919737544823374
-0.025009536888685433
-0.0260166323338674
-0.029709315632867935
-0.029037918669413288
-0.029709315632867935
-0.035751888303959714
-0.03508049134050507
-0.02333104448004883
-0.013092240787365528
-0.015106431677729458
-0.014938582436865796
0.009903105210955977
0.03138780804150454
0.03474479285877775
0.03138780804150454
0.027862973983367664
0.028366521705958644
0.02668802929732204
0.014938582436865796
0.016449225604638743
0.03373769741359579
0.04917982757305257
0.0481727321278706
0.0213168535896849
-0.003692683299000534
-0.011581597619592583
-0.0055390249485008005
0.0025177386129549098
-0.0011749446860456242
-0.022323949034866862
-0.037094682230869
-0.03138780804150454
-0.020309758144502935
-0.017624170290684367
-0.024338139925230793
-0.03508049134050507
-0.04582284275577936
-0.04011596856641489
-0.022323949034866862
-0.014435034714274816
-0.009231708247501335
0.001846341649500267
0.01560997940032044
0.014602883955138474
0.0025177386129549098
0.004531929503318838
0.012252994583047227
0.024673838406958113
0.03407339589532311
0.02400244144350347
0.009903105210955977
0.022491798275730522
0.0426337071793698
0.0481727321278706
0.037094682230869
0.017624170290684367
0.009903105210955977
0.009063859006637675
0.003860532539864194
-0.003189135576409552
-0.009231708247501335
-0.026352330815594724
-0.04615854123750667
-0.04515144579232471
-0.03172350652323186
-0.030380712596322572
-0.03910887312123293
-0.041794460975051496
-0.03776607919432364
-0.044480048828870064
-0.05824368657969024
-0.05387960631723506
-0.03373769741359579
-0.011581597619592583
-0.00016784924086366064
-0.012420843823910887
-0.021652552071412222
-0.007217517357137408
0.0052033264667734795
0.014267185473411156
0.01628137636377508
0.009903105210955977
0.008224612802319372
0.017792019531548024
0.021988250553139542
0.02265964751659419
0.020645456626230255
0.008896009765774012
-0.006881818875410085
-0.0055390249485008005
0.0011749446860456242
0.004196231021591517
0.0011749446860456242
-0.011749446860456245
-0.021820401312275882
-0.03440909437705043
-0.05471885252155337
-0.054551003280689715
-0.03843747615777828
-0.0323949034866865
-0.03440909437705043
-0.054551003280689715
-0.06361486228732739
-0.04649423971923399
-0.025177386129549097
-0.011581597619592583
-0.0015106431677729458
-0.0021820401312275884
-0.007217517357137408
-0.005706874189364461
0.003189135576409552
0.019974059662775615
0.028366521705958644
0.016617074845502403
0.004531929503318838
0.01359578850995651
0.025009536888685433
0.02652018005645838
0.03138780804150454
0.03172350652323186
0.025345235370412753
0.012252994583047227
-0.011917296101319903
-0.021988250553139542
-0.01846341649500267
-0.01913481345845731
-0.025009536888685433
-0.04313725490196078
-0.056900892652780956
-0.050186923018234526
-0.0387731746395056
-0.03843747615777828
-0.03978027008468757
-0.04313725490196078
-0.04649423971923399
-0.04061951628900587
-0.025680933852140077
-0.010574502174410621
-0.003692683299000534
-0.010406652933546959
-0.022995345998321506
-0.01560997940032044
-0.00016784924086366064
0.0035248340581368735
0.0052033264667734795
0.0055390249485008005
0.006210421911955443
0.003692683299000534
-0.011245899137865261
-0.013931486991683832
-0.0008392462043183033
0.009231708247501335
0.010910200656137941
-0.0050354772259098195
-0.02265964751659419
-0.021652552071412222
-0.01560997940032044
-0.020309758144502935
-0.025345235370412753
-0.0323949034866865
-0.03743038071259632
-0.029709315632867935
-0.014938582436865796
-0.0055390249485008005
-0.008560311284046692
-0.03390554665445944
-0.060090028229190504
-0.05337605859464408
-0.028030823224231328
-0.009735255970092317
-0.006881818875410085
0.00016784924086366064
0.003860532539864194
-0.010910200656137941
-0.027695124742504008
-0.025009536888685433
-0.01326009002822919
-0.0011749446860456242
0.009567406729228655
-0.0015106431677729458
-0.009231708247501335
0.009231708247501335
0.02400244144350347
0.032730601968413826
0.04213015945677882
0.03944457160296025
0.028366521705958644
0.0260166323338674
0.02333104448004883
0.01829556725413901
0.016617074845502403
0.0011749446860456242
-0.025009536888685433
-0.027695124742504008
-0.017959868772411687
-0.009231708247501335
-0.006210421911955443
-0.008896009765774012
-0.01560997940032044
-0.029037918669413288
-0.049851224536507206
-0.048844129091325246
-0.022323949034866862
-0.0005035477225909818
0.0011749446860456242
-0.020309758144502935
-0.030380712596322572
-0.018631265735866327
-0.0008392462043183033
0.011245899137865261
0.022995345998321506
0.0260166323338674
0.02333104448004883
0.03172350652323186
0.0481727321278706
0.06495765621423667
0.07267872129396505
0.056900892652780956
0.02400244144350347
0.01594567788204776
0.026352330815594724
0.027023727779049357
0.019974059662775615
0.025345235370412753
0.04145876249332417
0.041123064011596856
0.0260166323338674
0.029877164873731592
0.04548714427405204
0.0528725108720531
0.05488670176241703
0.03474479285877775
0.017288471808957043
0.021652552071412222
0.030716411078049892
0.03776607919432364
0.04682993820096131
0.04599069199664301
0.04414435034714275
0.05555809872587166
0.07234302281223774
0.08308537422751203
0.09315632867933166
0.08946364538033112
0.07704280155642022
0.08644235904478523
0.10255588616769665
0.09785610742351414
0.07637140459296558
0.05958648050659952
0.0528725108720531
0.03944457160296025
0.018631265735866327
0.017288471808957043
0.03675898374914168
0.051529716945143814
0.042465857938506144
0.005874723430228122
-0.020309758144502935
-0.017624170290684367
-0.0055390249485008005
0.00016784924086366064
-0.006210421911955443
-0.024338139925230793
-0.03776607919432364
-0.02937361715114061
-0.01628137636377508
-0.017959868772411687
-0.02265964751659419
-0.028366521705958644
-0.03810177767605096
-0.029037918669413288
-0.008896009765774012
0.004699778744182497
0.0052033264667734795
0.00016784924086366064
-0.0028534370946822307
-0.004196231021591517
-0.011581597619592583
-0.006210421911955443
0.014602883955138474
0.030716411078049892
0.028030823224231328
0.007217517357137408
-0.009903105210955977
-0.006881818875410085
0.007553215838864729
0.011917296101319903
0.011245899137865261
0.004196231021591517
-0.004364080262455177
-0.004364080262455177
-0.0035248340581368735
-0.006210421911955443
-0.0157778286411841
-0.03776607919432364
-0.061432822156099784
-0.056900892652780956
-0.033401998931868467
-0.01829556725413901
-0.008560311284046692
-0.0021820401312275884
-0.0035248340581368735
-0.01292439154650187
-0.02400244144350347
-0.022995345998321506
-0.0050354772259098195
0.018631265735866327
0.025345235370412753
0.0005035477225909818
-0.0213168535896849
-0.006881818875410085
0.017288471808957043
0.02937361715114061
0.027862973983367664
0.014267185473411156
-0.0008392462043183033
-0.003860532539864194
-0.0028534370946822307
-0.010910200656137941
-0.020309758144502935
-0.033066300450141146
-0.048844129091325246
-0.048844129091325246
-0.04213015945677882
-0.044480048828870064
-0.05035477225909819
-0.048844129091325246
-0.04548714427405204
-0.05119401846341649
-0.06327916380560006
-0.05673304341191729
-0.035751888303959714
-0.016784924086366067
-0.008896009765774012
-0.027862973983367664
-0.04917982757305257
-0.044647898069733724
-0.028366521705958644
-0.014938582436865796
-0.0028534370946822307
-0.009567406729228655
-0.024505989166094453
-0.020645456626230255
0.0003356984817273213
0.011581597619592583
0.008560311284046692
-0.011581597619592583
-0.041123064011596856
-0.04414435034714275
-0.028366521705958644
-0.01359578850995651
-0.01292439154650187
-0.02333104448004883
-0.03373769741359579
-0.04917982757305257
-0.06898603799496453
-0.07351796749828336
-0.061936369878690785
-0.04515144579232471
-0.03776607919432364
-0.054551003280689715
-0.06596475165941862
-0.049851224536507206
-0.02668802929732204
-0.017959868772411687
-0.017624170290684367
-0.019806210421911954
-0.022995345998321506
-0.010574502174410621
0.007721065079728388
0.014267185473411156
0.014938582436865796
0.00788891432059205
-0.004867627985046159
-0.00016784924086366064
0.016617074845502403
0.030045014114595252
0.033401998931868467
0.029709315632867935
0.01594567788204776
-0.009567406729228655
-0.027695124742504008
-0.01896696421759365
0.0011749446860456242
0.014602883955138474
0.010574502174410621
-0.021652552071412222
-0.04682993820096131
-0.043472953383688104
-0.027023727779049357
-0.01829556725413901
-0.01359578850995651
-0.021652552071412222
-0.030380712596322572
-0.02333104448004883
-0.0028534370946822307
0.01594567788204776
0.024673838406958113
0.012588693064774548
-0.008392462043183033
0.0005035477225909818
0.02333104448004883
0.033066300450141146
0.04078736552986953
0.04682993820096131
0.049515526054779886
0.04750133516441596
0.03843747615777828
0.03944457160296025
0.049515526054779886
0.05421530479896238
0.04666208896009766
0.01829556725413901
0.0025177386129549098
0.01527428091859312
0.029037918669413288
0.033401998931868467
0.03205920500495917
0.019638361181048294
0.0028534370946822307
0.001846341649500267
0.007217517357137408
0.012420843823910887
0.014602883955138474
0.003189135576409552
-0.011245899137865261
0.004196231021591517
0.033401998931868467
0.05488670176241703
0.07016098268101013
0.07737850003814756
0.07704280155642022
0.06294346532387274
0.044647898069733724
0.051865415426871134
0.07838559548332952
0.10255588616769665
0.10691996643015184
0.07939269092851148
0.0528725108720531
0.06361486228732739
0.08845654993514916
0.10054169527733271
0.09785610742351414
0.0797283894102388
0.05589379720759898
0.04548714427405204
0.04682993820096131
0.05790798809796292
0.06764324406805522
0.050522621499961846
0.023834592202639806
0.022323949034866862
0.03407339589532311
0.0387731746395056
0.04011596856641489
0.03743038071259632
0.035416189822232394
0.03440909437705043
0.0260166323338674
0.029037918669413288
0.044480048828870064
0.05387960631723506
0.05471885252155337
0.03474479285877775
0.01527428091859312
0.01594567788204776
0.030716411078049892
0.04615854123750667
0.05622949568932631
0.04682993820096131
0.028030823224231328
0.02366674296177615
0.02668802929732204
0.019302662699320974
0.0052033264667734795
-0.01628137636377508
-0.035751888303959714
-0.035751888303959714
-0.03054856183718624
-0.03910887312123293
-0.05354390783550774
-0.06529335469596398
-0.0780498970016022
-0.09852750438696878
-0.12236209658960862
-0.12118715190356297
-0.10591287098496985
-0.09953459983215075
-0.09953459983215075
-0.11564812695506219
-0.1270618753337911
-0.11900511177233539
-0.10154879072251469
-0.08543526359960325
-0.07939269092851148
-0.09047074082551307
-0.10423437857633323
-0.09416342412451362
-0.07536430914778362
-0.07536430914778362
-0.08140688181887541
-0.08879224841687647
-0.09970244907301441
-0.09449912260624094
-0.08812085145342184
-0.09147783627069504
-0.09214923323414968
-0.09567406729228656
-0.11128404669260701
-0.1253833829251545
-0.13008316166933698
-0.13461509117265583
-0.1411612115663386
-0.1364614328221561
-0.12974746318760969
-0.14250400549324788
-0.1586175326161593
-0.15593194476234074
-0.13612573434042877
-0.12135500114442664
-0.11161974517433432
-0.10926985580224306
-0.10222018768596933
-0.0800640878919661
-0.060593575951781484
-0.05387960631723506
-0.054551003280689715
-0.058075837338826576
-0.059250782024872196
-0.048844129091325246
-0.02937361715114061
-0.0023498893720912484
0.02265964751659419
0.030045014114595252
0.02400244144350347
0.00788891432059205
-0.016617074845502403
-0.02400244144350347
-0.01359578850995651
-0.004196231021591517
-0.006210421911955443
-0.026352330815594724
-0.04213015945677882
-0.03172350652323186
-0.012588693064774548
-0.0011749446860456242
0.0011749446860456242
-0.02333104448004883
-0.051865415426871134
-0.051865415426871134
-0.03205920500495917
-0.010910200656137941
0.003860532539864194
0.0021820401312275884
-0.0028534370946822307
0.007553215838864729
0.025680933852140077
0.032730601968413826
0.032730601968413826
0.042465857938506144
0.057236591134508276
0.062272068360418105
0.05622949568932631
0.06764324406805522
0.09181353475242236
0.11329823758297093
0.12001220721751735
0.10289158464942397
0.07838559548332952
0.07284657053482871
0.07704280155642022
0.08039978637369342
0.0767071030746929
0.06160067139696345
0.04548714427405204
0.043472953383688104
0.050690470740825506
0.049515526054779886
0.035416189822232394
0.020645456626230255
0.01527428091859312
0.021988250553139542
0.029709315632867935
0.032730601968413826
0.0387731746395056
0.043472953383688104
0.0387731746395056
0.024673838406958113
0.01326009002822919
0.02333104448004883
0.04145876249332417
0.050690470740825506
0.05119401846341649
0.03189135576409552
0.01594567788204776
0.02333104448004883
0.03608758678568704
0.049515526054779886
0.059250782024872196
0.043472953383688104
0.01913481345845731
0.006546120393682764
0.006546120393682764
0.017959868772411687
0.020645456626230255
0.0055390249485008005
-0.007217517357137408
0.0023498893720912484
0.0260166323338674
0.044815747310597384
0.048676279850461586
0.049515526054779886
0.057236591134508276
0.058915083543144876
0.05656519417105363
0.07267872129396505
0.10188448920424201
0.1270618753337911
0.14485389486533912
0.13881132219424736
0.139482719157702
0.17405966277561608
0.22407873655298696
0.2636911573968108
0.2992751964599069
0.34828717479209587
1.463477531090257
4.310200656137941
5.472724498359654
5.479438467994202
5.480445563439384
5.479774166475929
5.48078126192111
5.479774166475929
5.479774166475929
5.480445563439384
5.480445563439384
5.480445563439384
5.481116960402838
5.480445563439384
5.473731593804837
5.377721828030823
3.5246662088960097
-0.7405508506904707
-4.489127946898605
-5.487830930037385
-5.492698558022431
-5.493705653467612
-5.494209201190204
-5.494377050431067
-5.494209201190204
-5.49454489967193
-5.49454489967193
-5.494712748912795
-5.494712748912795
-5.494712748912795
-5.494880598153658
-5.494712748912795
-5.494880598153658
-5.494712748912795
-5.495048447394521
-5.494880598153658
-5.494880598153658
-5.494712748912795
-5.494712748912795
-5.494880598153658
-5.494880598153658
-5.495048447394521
-5.495048447394521
-5.494880598153658
-5.495048447394521
-5.495048447394521
-5.494880598153658
-5.495048447394521
-5.494880598153658
-5.495048447394521
-5.495048447394521
-5.495048447394521
-5.494880598153658
-5.495216296635386
-5.495216296635386
-5.494880598153658
-5.494880598153658
-5.494880598153658
-4.890455481803615
-3.984405279621576
-3.6344396124208433
-3.2671854734111543
-2.647486076142519
-2.0304722667277026
-1.714244296940566
-1.3787136644541085
-0.6601510643167773
0.020645456626230255
0.4127412832837415
0.6886854352635996
1.069367513542382
1.3302052338445107
1.1962615396353093
0.5429922941939421
-0.15928892957961394
-0.47769893949797815
-0.2821545738918135
0.07771419851987486
0.3019607843137255
0.4192874036774243
0.25731288624399173
0.0025177386129549098
0.11866941329060808
0.6050965133134966
1.1781338216220338
1.8945143816281376
2.8801251239795524
3.602548256656748
3.99195849546044
4.151079575799191
4.235675593194475
4.504234378576333
4.786892500190737
4.946013580529487
5.029938200961317
5.067536430914778
5.096406500343328
5.330724040588999
5.47843137254902
5.479774166475929
5.4780956740672915
5.142061493858244
4.823147936217288
4.456565194171054
4.008072022583352
3.5239948119325555
3.0499885557335773
2.6008239871824217
2.351735713740749
2.3409933623254746
2.365163653009842
2.326894026092927
2.210742351415274
1.9871671625848781
1.4946974898908982
0.6856641489280537
-0.04145876249332417
-0.33452353704127563
-0.16130312046997786
0.12437628747997252
0.3429159990844587
0.7716029602502479
2.122117952239261
3.499153124284733
3.7656977187762264
3.3554741741054404
2.939208056763561
2.667627985046158
2.6082093537804227
3.1473411154345
3.908705271992065
4.482078278782329
4.745601586938277
4.553917753871976
3.992629892423895
3.263828488593881
2.522270542458229
1.8468451972228581
1.1338216220340278
0.42281223773556104
0.0008392462043183033
-0.10759136339360646
-0.14183260852979326
-0.25261310749980925
-0.35399404898146025
-0.2950789654383154
-0.16600289921416037
-0.019638361181048294
0.10490577553978789
0.12655832761120012
0.03810177767605096
-0.035416189822232394
-0.044815747310597384
-0.05387960631723506
-0.06428625925078202
0.03608758678568704
0.23683527885862518
-2.411154345006485
-5.468024719615472
-5.4918593118181125
-5.493369954985885
-5.49404135194934
-3.5001602197299153
1.5413595788509955
3.049317158770123
2.77270160982681
3.3215686274509806
4.323292896925307
4.878873884184023
4.91445792324712
4.795620660715648
4.248432135500114
3.1325703822384985
1.933791103990234
0.9303883421072707
0.26839093614099335
-0.16130312046997786
-0.0010070954451819635
1.0942092011902036
3.6414892805371175
5.473060196841382
5.479102769512474
5.479774166475929
5.479774166475929
5.479774166475929
5.479774166475929
5.480445563439384
5.480445563439384
5.480445563439384
5.479774166475929
5.480445563439384
5.479774166475929
5.480445563439384
5.480445563439384
5.371679255359732
4.414938582436865
3.355138475623713
2.5383840695811397
3.6173189898527505
5.371007858396276
5.479774166475929
5.479774166475929
5.479774166475929
5.129304951552605
3.9275043869687947
0.7558251316090638
-4.207141222247653
-5.487663080796521
-5.492530708781567
-5.493369954985885
-5.493873502708476
-5.494209201190204
-5.494209201190204
-5.494712748912795
-5.49454489967193
-5.49454489967193
-5.494712748912795
-4.651606012054628
-2.1780117494468603
0.12169069962615398
1.8018616006713968
2.710261692225528
2.9479362172884715
2.6518501564049743
1.4252079041733425
-0.9226672770275426
-2.6199588006408785
-3.2316014343480584
-3.318715190356298
-2.867200732433051
-2.320851453421836
-2.3910124361028458
-2.915205615320058
-3.2457007705806062
-2.935851071946288
-1.342290379186694
1.5839932860303654
3.6112764171816583
3.676066224155032
1.7306935225452047
-0.6173495078965439
-0.9317311360341801
-0.49263752193484395
0.03743038071259632
1.4124513618677044
2.991577019913023
4.06849774929427
4.7855497062638275
5.445532921339741
5.479102769512474
5.479774166475929
5.479774166475929
5.480445563439384
5.479774166475929
5.480445563439384
4.151750972762645
0.7293049515526054
-0.25563439383535513
1.322987716487373
2.783443961242084
2.9694209201190205
2.6693064774547945
2.451773861295491
2.223163195239185
1.895185778591592
0.8850690470740824
-1.0415045395590141
-3.042267490653849
-4.265888456549935
-4.26152437628748
-3.731288624399176
-3.3511100938429847
-3.3660486762798505
-3.5887846189059287
-3.928847180895704
-4.322621499961853
-4.536964980544747
-5.0831464103150985
-5.490180819409476
-5.493369954985885
-5.493873502708476
-5.494377050431067
-5.494377050431067
-5.494377050431067
-5.342137788967727
-4.750637064164187
-3.927168688487068
-2.357778286411841
-0.34123750667582203
0.5718623636224918
0.3355306324864576
0.2563057907988098
0.853177691309987
1.6789959563591976
2.2758678568703745
2.7236896314946213
3.130891889829862
3.2285801480125125
3.237979705500877
3.5965056839856557
3.37796597238117
2.075791561760891
0.17976653696498052
-0.8884260318913556
-0.43422598611429003
0.5960326543068589
1.4272220950637065
2.005966277561608
2.4524452582589458
2.6323796444647893
2.416189822232395
1.9831387808041503
1.2909285114824138
0.47316700999465927
-0.6450446326390478
-1.5504234378576334
-1.7649347676813916
-1.394323643854429
-0.8290074006256198
-0.38554970626382845
-0.5738765545128556
-1.058960860608835
-0.7477683680476082
0.33015945677882047
1.6756389715419242
2.877103837644007
3.5488364995803767
3.5526970321202413
3.017425803006027
2.439688715953307
2.1442740520332646
1.8528877698939497
1.9885099565117872
2.5252918287937742
2.955321583886473
3.2210269321736478
3.3326466773479817
3.1191424429694057
2.7055619134813456
2.323537041275654
2.057663843747616
1.803875791561761
1.4520637827115281
1.0022278171969177
0.5033798733501182
0.09315632867933166
-0.15727473868925002
-0.33485923552300295
-0.5178149080643931
-0.658808270389868
-0.7736171511406118
-0.9320668345159074
-1.0542610818646525
-1.0921950102998397
-1.0878309300373845
-1.1220721751735714
-1.1511100938429846
-1.124086366063935
-0.9686579690241854
-0.9000076295109483
-1.0717174029144734
-1.1264362554360265
-1.040161745632105
-0.9946746013580529
-0.9676508735790036
-0.9465018692301824
-1.3436331731136035
-1.839795529106584
-1.790280003051804
-1.45307087815671
-1.2254673075455862
-1.1029373617151141
-0.9852750438696879
-0.9078965438315404
-0.9542229343099107
-1.0841382467383838
-1.1887083237964446
-1.2120393682764936
-1.0458686198214693
-0.7833524071107042
-0.6017395284962234
-0.48256656748302434
-0.4382543678950179
-0.5970397497520409
-0.6245670252536812
-0.5493705653467612
-0.5567559319447623
-0.4708171206225681
-0.2505989166094453
-0.06797894254978255
0.4991836423285267
1.6279697871366445
2.47191577019913
2.647486076142519
2.6048523689631495
2.625665674830243
2.626337071793698
2.3718776226443885
1.3540398260471505
0.4382543678950179
0.20712596322575721
-0.3670862897688258
-1.0415045395590141
-1.1724269474326696
-0.962951094834821
-0.7930876630807965
-0.736018921187152
-0.6984206912336919
-0.6470588235294118
-0.611810482948043
-0.49230182345311657
-0.3657434958419165
-0.5379568169680324
-0.8112153810940719
-0.8045014114595254
-0.5577630273899443
-0.25261310749980925
-0.010406652933546959
0.17439536125734342
0.36171511406118867
0.5517204547188524
0.7182269016556039
0.873990997177081
1.0156557564660105
1.1244220645456624
1.217746242465858
1.30771343556878
1.4129549095902951
1.5487449454489968
1.6702677958342866
1.8149538414587625
1.9663538567177845
2.066392004272526
2.117418173495079
2.117418173495079
2.0623636224917985
2.0630350194552527
2.084184023804074
1.9791103990234225
1.6373693446250093
1.3533684290836956
1.2808575570305942
1.3485008010986492
1.4104371709773402
1.4265506981002516
1.437293049515526
1.450049591821164
1.448706797894255
1.448706797894255
1.4648203250171663
1.4789196612497137
1.4795910582131684
1.450049591821164
1.2634012359807736
0.7531395437552453
0.2630197604333562
0.1445181963836118
0.22944991226062406
0.3022964827954528
0.1552605477988861
-0.03944457160296025
-0.007049668116273747
0.26536964980544747
0.5611200122072174
0.7746242465857939
0.9203173876554511
1.0161593041886017
1.0878309300373845
1.1959258411535822
1.2526588845654991
1.1586633096818493
1.053925383382925
1.0314335851071947
1.0519111924925613
1.08397039749752
1.1009231708247502
1.0859845883878843
1.060975051499199
1.01699855039292
-0.17019913023575187
-2.6693064774547945
-4.050873579003586
-3.90434119172961
-3.5300373846036472
-3.51274891279469
-3.511070420386053
-3.3875333791103985
-3.183596551461051
-2.8885175860227363
-2.5403982604715036
-2.2171206225680935
-1.9663538567177845
-1.7498283360036624
-1.5074540321965362
-1.2023041123064009
-0.8192721446555274
-0.416433966582742
-0.06797894254978255
0.2140077821011673
0.44832532234683753
0.6604867627985045
0.8709697108415351
1.0639963378347446
1.2080109864957655
1.3083848325322347
1.3923094529640652
1.4594491493095292
1.505104142824445
1.5252460517280841
1.5091325246051728
1.4800946059357594
1.445685511558709
1.4054016937514304
1.3647821774624247
1.3218127718013275
1.27011520561532
1.2076752880140382
1.1395284962233918
1.082627603570611
1.0710460059510185
1.0566109712367437
1.0002136263065537
0.9357595178149081
0.8860761425192646
0.8434424353398947
0.8187685969329366
0.8092011902037078
0.7799954222934309
0.7209124895094224
0.6470588235294118
0.573205157549401
0.5090867475394828
0.4503395132372015
0.39427786678873883
0.351644159609369
0.3200885023270008
0.28517586022735936
0.24019226367589838
0.18916609445334553
0.13914702067597465
0.08845654993514916
0.033066300450141146
-0.020309758144502935
-0.06294346532387274
-0.09903105210955977
-0.1284046692607004
-0.1512321660181582
-0.17355611505302507
-0.2002441443503471
-0.223071641107805
-0.23784237430380706
-0.24690623331044484
-0.25261310749980925
-0.25999847409781035
-0.27275501640344857
-0.2824902723735408
-0.28886854352635993
-0.29491111619745175
-0.30296787975890743
-0.31454947737850003
-0.3197528038452735
-0.3246204318303197
-0.33083085374227506
-0.3372091248950942
-0.34744792858777757
-0.35332265201800567
-0.35147631036850535
-0.35097276264591437
-0.35197985809109633
-0.36540779736018913
-0.3852140077821012
-0.3936064698252842
-0.39511711299305713
-0.3919279774166476
-0.3862211032272831
-0.3815213244831006
-0.3781643396658274
-0.38017853055619133
-0.3825284199282826
-0.38219272144655525
-0.3781643396658274
-0.37279316395819023
-0.3691004806591897
-0.3640650034332799
-0.3618829633020523
-0.35936522468909743
-0.35097276264591437
-0.33485923552300295
-0.3197528038452735
-0.31169604028381775
-0.31236743724727245
-0.31538872358281833
-0.3157244220645456
-0.3167315175097276
-0.31740291447318225
-0.3157244220645456
-0.30934615091172657
-0.3016250858319981
-0.29188982986190587
-0.2841687647821775
-0.28282597085526817
-0.2861829556725414
-0.29356832227054247
-0.30112153810940717
-0.30783550774395363
-0.31337453269245436
-0.31236743724727245
-0.31236743724727245
-0.32143129625391015
-0.3304951552605478
-0.3382162203402762
-0.34392309452964065
-0.3586938277256428
-0.37380025940337225
-0.3769893949797818
-0.37111467154955363
-0.4204623483634699
-0.5158007171740291
-0.5970397497520409
-0.6168459601739529
-0.6040894178683145
-0.6133211261158159
-0.6339665827420462
-0.639002059967956
-0.6259098191805904
-0.6014038300144959
-0.583611810482948
-0.5728694590676737
-0.5339284351873044
-0.4473182269016556
-0.34056610971236745
-0.2291142137788968
-0.04011596856641489
0.5542381933318073
1.482276646066987
2.355764095521477
2.9949340047302964
3.4138857099259936
3.7549553673609526
4.010757610437171
4.132280460822461
4.160479133287556
4.089311055161363
3.9100480659189745
3.6079194323643855
1.784405279621576
-1.2570229648279545
-2.9449149309529257
-2.9115129320210573
-2.6253299763485156
-2.27704280155642
-1.8723582818341344
-1.539009689478904
-1.2070038910505836
-0.8380712596322575
-0.2583199816891737
0.10272373540856031
0.41072709239337757
0.7987945372701609
1.095551995117113
1.175783932249943
1.2164034485389486
1.3154345006485084
1.1281147478446631
1.06332494087129
1.1180437933928435
0.9082322423132677
0.6712291142137788
0.6067750057221332
-0.1253833829251545
-0.4036774242771038
-0.11581597619592585
-0.18815899900816355
-0.6279240100709544
-1.039154650186923
-1.2318455786984053
-0.9887998779278246
-0.8911116197451744
-1.1465781643396658
-1.333897917143511
-1.3263447013046463
-1.101426718547341
-1.0853131914244296
-1.1542992294193941
-1.130128938735027
-1.0730601968413824
-1.1328145265888454
-1.1685664148928052
-1.0294193942168306
-1.0388189517051958
-0.8417639429312581
-0.517311360341802
-0.5218432898451209
-0.6000610360875868
-0.5305714503700313
-1.0770885786221103
-1.1452353704127562
-0.732997634851606
-0.6856641489280537
-0.9387808041504537
-1.1442282749675745
-1.2001220721751735
-0.8238040741588464
-0.6010681315327687
-0.816586556801709
-1.0388189517051958
-1.0973983367666131
-0.9411306935225452
-1.0059205004959182
-1.113344014648661
-1.1180437933928435
-1.0968947890440224
-1.1314717326619363
-1.0784313725490198
-0.9008468757152666
-0.9763790341039139
-0.8286717021438925
-0.5362783245593958
-0.5587701228351263
-0.6091248950942245
-0.45403219653620197
-0.8702983138780804
-0.7477683680476082
-0.1777523460746166
-0.09752040894178682
-0.3566796368352788
-0.5695124742504005
-0.6534370946822308
-0.3425803006027313
-0.19386587319752804
-0.47014572365911345
-0.7199053940642404
-0.6353093766689555
-0.23649958037689783
-0.18883039597161821
-0.46678873884184025
-0.5903257801174944
-0.600396734569314
-0.764217593652247
-0.9569085221637292
-1.0485542076752878
-1.0817883573662928
-1.0989089799343863
-1.1220721751735714
-1.1623559929808498
-1.2120393682764936
-1.2966353856717785
-1.383916990920882
-1.4117799649042497
-1.41547264820325
-1.4208438239108871
-1.4215152208743418
-1.4104371709773402
-1.3768673228046082
-1.3397726405737391
-1.3231555657282368
-1.3268482490272373
-1.3355764095521476
-1.3290302891584649
-1.3218127718013275
-1.3080491340505072
-1.245273517967498
-1.1506065461203936
-1.0428473334859234
-0.8964827954528115
-0.7101701380941481
-0.5090867475394828
-0.2915541313801785
-0.07133592736705577
0.14317540245670252
0.361043717097734
0.5758907454032196
0.7638818951705195
0.9750362401770046
1.2237888151369496
1.4748912794689861
1.707866025787747
1.9126420996414129
2.099961852445258
2.2731822690165555
2.3866483558403906
2.439688715953307
2.465873197528038
2.466544594491493
2.4380102235446706
2.365163653009842
2.265796902418555
2.164080262455176
2.0388647287708856
1.8837720302128635
1.720622568093385
1.5633478294041352
1.4090943770504312
1.276661326009003
1.1512779430838482
1.0274052033264667
0.9162890058747234
0.8256504158083466
0.7793240253299762
0.8330357824063477
0.9498588540474556
1.0817883573662928
1.2096894789044021
1.320469977874418
1.431250476844434
1.5705653467612726
1.70249485008011
1.8055542839703975
1.8770580605783171
1.9257343404287786
1.9509117265583276
1.9186846723125046
1.833417257953765
1.739421683070115
1.640726329442283
1.5188677805752648
1.3738460364690623
1.2217746242465855
1.0592965590905623
0.8847333485923551
0.6672007324330511
0.41676966506446933
0.16902418554970625
-0.06932173647669183
-0.3251239795529106
-0.5399710078583962
-0.686503395132372
-0.7877164873731594
-0.8632486457618066
-0.9132677195391775
-0.9206530861371787
-0.8796978713664453
-0.8281681544213015
-0.7736171511406118
-0.6984206912336919
-0.5985503929198138
-0.4708171206225681
-0.34795147631036855
-0.22240024414435033
-0.06596475165941862
0.11061264972915236
0.27510490577553975
0.4192874036774243
0.549034866865034
0.6430304417486838
0.7128557259479666
0.7575036240177004
0.7679102769512475
0.7491111619745173
0.6873426413366903
0.5510490577553979
0.4112306401159686
0.286854352635996
0.15156786449988555
0.006546120393682764
-0.14418249790188448
-0.2836652170595865
-0.38420691233691917
-0.4708171206225681
-0.5560845349813077
-0.6225528343633172
-0.6648508430609598
-0.6722362096589609
-0.6722362096589609
-0.6702220187685969
-0.6332951857785916
-0.5550774395361256
-0.44664682993820093
-0.31169604028381775
-0.14418249790188448
0.03944457160296025
0.23347829404135198
0.41408407721065077
0.55390249485008
0.6531013962005036
0.7162127107652398
0.7113450827801938
0.6906996261539635
0.6913710231174182
0.688014038300145
0.6537727931639582
0.5906614785992217
0.5099259937438011
0.41811245899137867
0.2848401617456321
0.10759136339360646
-0.08879224841687647
-0.28752574959945065
-0.46678873884184025
-0.631616693369955
-0.7742885481040666
-0.8632486457618066
-0.9082322423132677
-0.9354238193331806
-0.939620050354772
-0.9055466544594492
-0.8536812390325781
-0.7759670405127032
-0.6719005111772335
-0.5580987258716716
-0.43926146334019983
-0.31253528648813605
-0.20057984283207447
-0.05387960631723506
0.13746852826733807
0.3200885023270008
0.45638208590829327
0.5436636911573968
0.6094605935759517
0.67861448081178
0.7209124895094224
0.7229266803997862
0.6853284504463264
0.6077821011673151
0.5023727779049363
0.3513084611276417
0.17137407492179751
0.0011749446860456242
-0.17137407492179751
-0.3553368429083695
-0.5225146868085755
-0.6406805523765925
-0.7266193636987869
-0.7769741359578851
-0.8100404364080261
-0.8454566262302586
-0.8644235904478524
-0.8632486457618066
-0.8864118410009918
-0.8610666056305791
-0.7581750209811551
-0.6272526131074998
-0.49649805447470813
-0.35063706416418705
-0.1696955825131609
0.051529716945143814
0.2546272983901732
0.4100556954299229
0.5349355306324863
0.6292668039978637
0.6980849927519646
0.7229266803997862
0.7044632639047836
0.6816357671473258
0.6584725719081408
0.610803387502861
0.52822156099794
0.4201266498817426
0.27644769970244903
0.12605477988860914
-0.035919737544823374
-0.22374303807125961
-0.41777676050965123
-0.6047608148317694
-0.7994659342336156
-0.9307240405889983
-0.9787289234760052
-0.9981994354161898
-1.0059205004959182
-0.9948424505989166
-0.9508659494926375
-0.8481422140840771
-0.7293049515526054
-0.6178530556191348
-0.494651712825208
-0.34660868238345927
-0.175066758220798
-0.004531929503318838
0.16096742198825056
0.32545967803463793
0.47450980392156866
0.5873044937819486
0.6625009536888684
0.7232623788815137
0.7658960860608836
0.8021515220874341
0.8088654917219805
0.7558251316090638
0.6537727931639582
0.5097581445029374
0.3016250858319981
0.0971847104600595
-0.07133592736705577
-0.2358281834134432
-0.4060273136491951
-0.5656519417105363
-0.7011062790875104
-0.7752956435492485
-0.8088654917219805
-0.8404211490043487
-0.8578774700541695
-0.8350499732967117
-0.7783169298847943
-0.7269550621805143
-0.6638437476157778
-0.557930876630808
-0.4194552529182879
-0.26066987106126494
-0.06865033951323721
0.1535820553902495
0.36440070191500723
0.5550774395361256
0.7100022888532844
0.8169222552834363
0.8843976501106281
0.907560845349813
0.8602273594262608
0.8162508583199818
0.8048371099412528
0.7751277943083849
0.6913710231174182
0.5580987258716716
0.4120698863202869
0.2831616693369955
0.1351186388952468
-0.0528725108720531
-0.2509346150911726
-0.42449073014419775
-0.557427328908217
-0.6833142595559624
-0.7890592813000685
-0.839749752040894
-0.8483100633249409
-0.8360570687418936
-0.797787441824979
-0.7162127107652398
-0.6155031662470435
-0.4872663462272068
-0.34425879301136797
-0.20611886778057525
-0.06428625925078202
0.08140688181887541
0.19487296864270998
0.32948805981536583
0.48659494926375213
0.6151674677653163
0.6940566109712368
0.7376974135957886
0.768581673914702
0.8013122758831158
0.797283894102388
0.7363546196688792
0.6279240100709544
0.4899519340810254
0.3378805218585489
0.14485389486533912
-0.07335011825741969
-0.27275501640344857
-0.4453040360112916
-0.5970397497520409
-0.7148699168383307
-0.7779812314030671
-0.8132295719844358
-0.8128938735027085
-0.7898985275043869
-0.7702601663233386
-0.7514610513466086
-0.7269550621805143
-0.7148699168383307
-0.6373235675593194
-0.47115281910429546
-0.2836652170595865
-0.10171663996337835
0.08375677119096665
0.278461890592813
0.4859235523002976
0.6631723506523232
0.7766384374761577
0.8437781338216219
0.8840619516289006
0.9045395590142673
0.8723125047684444
0.8011444266422522
0.7316548409246966
0.6514229037918668
0.5309071488517586
0.37380025940337225
0.1999084458686198
0.011245899137865261
-0.1641565575646601
-0.32780956740672923
-0.4882734416723888
-0.6346379797055008
-0.7663996337834744
-0.9109178301670862
-0.9830930037384603
-0.9609369039444571
-0.9176317998016326
-0.878355077439536
-0.8246433203631647
-0.731990539406424
-0.5832761120012206
-0.42113374532692444
-0.2640268558785382
-0.1002059967956054
0.08375677119096665
0.28836499580376895
0.46393530174715797
0.5967040512703136
0.71117723353933
0.8092011902037078
0.8733196002136262
0.9045395590142673
0.9183031967650873
0.9048752574959945
0.879362172884718
0.8186007476920728
0.6893568322270542
0.5033798733501182
0.2754406042572671
-0.0021820401312275884
-0.24405279621576256
-0.424826428625925
-0.585626001373312
-0.7293049515526054
-0.8461280231937134
-0.9167925535973143
-0.9176317998016326
-0.8924544136720836
-0.8857404440375372
-0.8736552986953537
-0.8367284657053483
-0.7561608300907912
-0.658808270389868
-0.5426565957122148
-0.3813534752422369
-0.19084458686198216
0.0052033264667734795
0.20192263675898375
0.39998474097810327
0.557427328908217
0.6772716868848707
0.7766384374761577
0.8514991989013504
0.8921187151903562
0.8901045242999922
0.815579461356527
0.744411383230335
0.699763485160601
0.6155031662470435
0.4758525978484779
0.30061799038681614
0.11799801632715344
-0.04011596856641489
-0.19974059662775617
-0.380346379797055
-0.5502098115510795
-0.6809643701838711
-0.7588464179446097
-0.816586556801709
-0.8629129472800793
-0.8629129472800793
-0.8280003051804379
-0.7749599450675211
-0.6856641489280537
-0.546013580529488
-0.3825284199282826
-0.19621576256961928
0.0035248340581368735
0.1915159838254368
0.36742198825055317
0.5211718928816662
0.6111390859845883
0.6994277866788738
0.8081940947585259
0.8827191577019915
0.9033646143282215
0.888761730373083
0.8696269169146257
0.8597238117036696
0.8038300144960707
0.6678721293965056
0.48189517051956965
0.2771190966659037
0.0750286106660563
-0.1461966887922484
-0.373464560921645
-0.5644769970244907
-0.7165484092469673
-0.8327000839246205
-0.9038681620508124
-0.9216601815823605
-0.909575036240177
-0.8624093995574883
-0.7951018539711604
-0.734004730296788
-0.6708934157320514
-0.5883115892271307
-0.5174792095826657
-0.38974593728541995
-0.17154192416266117
0.06764324406805522
0.2838330663004501
0.4792095826657511
0.6695506218051422
0.8619058518348974
1.001556420233463
1.061310749980926
1.0646677347981994
1.0384832532234685
1.004913405050736
0.9340810254062715
0.8159151598382544
0.6777752346074616
0.5100938429846646
0.30296787975890743
0.0844281681544213
-0.11161974517433432
-0.3009536888685435
-0.47182421606775005
-0.6138246738384069
-0.7430685893034256
-0.8629129472800793
-0.9589227130540932
-1.0592965590905623
-1.0918593118181126
-1.026733806363012
-0.9387808041504537
-0.8676127260242618
-0.7885557335774777
-0.6628366521705958
-0.46511024643320364
-0.24942397192339977
-0.06210421911955444
0.11195544365606165
0.28853284504463267
0.4627603570611124
0.5812619211108567
0.639002059967956
0.6833142595559624
0.727626459143969
0.7507896543831539
0.7514610513466086
0.7350118257419699
0.6819714656290532
0.6067750057221332
0.5010299839780269
0.3311665522240024
0.11598382543678949
-0.11161974517433432
-0.36607919432364383
-0.5654840924696727
-0.6729076066224154
-0.7534752422369725
-0.8310215915159838
-0.8790264744029908
-0.8723125047684444
-0.8055085069047073
-0.7313191424429694
-0.6672007324330511
-0.6007324330510413
-0.5127794308384832
-0.38017853055619133
-0.2358281834134432
-0.07838559548332952
0.11665522240024415
0.3274738689250019
0.5275501640344854
0.7094987411306934
0.8766765850308994
1.0022278171969177
1.0992446784161136
1.1613488975356678
1.1613488975356678
1.1086442359044784
1.021362630655375
0.8696269169146257
0.714198519874876
0.585626001373312
0.4234836346990158
0.22206454566262301
0.014602883955138474
-0.16600289921416037
-0.2975967040512703
-0.4197909514000152
-0.5523918516823071
-0.6621652552071412
-0.7313191424429694
-0.7536430914778363
-0.7635461966887922
-0.7695887693598841
-0.7282978561074235
-0.6517586022735942
-0.5582665751125353
-0.4258335240711071
-0.24052796215762567
-0.03776607919432364
0.1901731898985275
0.4288548104066529
0.6329594872968642
0.8041657129777982
0.9458304722667277
1.046540016784924
1.9455405508506902
3.461219195849546
3.752941176470588
3.0996719310292207
2.959349965667201
3.3440604257267106
3.528023193713283
3.840222781719692
4.12623788815137
4.073868925001907
3.810681315327687
3.5424582284275576
3.456855115587091
3.188296330205234
2.8915388723582818
2.6444647898069733
2.40175478751812
2.1496452277409017
1.9643396658274204
1.8240177004654001
1.3963378347447928
1.2049897001602197
1.1707484550240328
0.7961089494163425
0.31773861295490957
0.007217517357137408
-0.8280003051804379
-1.0300907911802852
-0.6772716868848707
-0.7323262378881514
-1.1274433508812083
-1.4993972686350803
-1.7097123674372472
-1.466498817425803
-1.3751888303959716
-1.6847028305485618
-1.959975585564965
-2.0556496528572517
-1.8955214770733197
-1.9245593957427327
-2.094254978255894
-2.2099031052109552
-2.269489585717555
-2.403768978408484
-2.5497978179598686
-2.5736324101625083
-2.7720302128633554
-2.6981765468833445
-2.4359960326543066
-2.4673838406958115
-2.5221026932173642
-2.4138399328603035
-2.925108720531014
-2.9408865491721974
-2.457145037003128
-2.355092698558022
-2.5654077973601885
-2.7361104753185317
-2.7911650263218126
-2.3671778439002056
-1.978606851300832
-1.967360952162966
-2.0004272526131075
-1.9042496375982298
-1.6063172350652324
-1.6058136873426414
-1.6638895246814678
-1.5638513771267262
-1.4443427176317998
-1.4349431601434346
-1.350179293507286
-1.0918593118181126
-1.1180437933928435
-0.9619439993896391
-0.6138246738384069
-0.5869687953002212
-0.6574654764629587
-0.5604486152437628
-1.0968947890440224
-1.0948805981536582
-0.5426565957122148
-0.3778286411841001
-0.5560845349813077
-0.6957351033798734
-0.6722362096589609
-0.24187075608453498
0.02400244144350347
-0.13344014648661018
-0.286854352635996
-0.26469825284199283
-0.00016784924086366064
0.0473334859235523
0.01896696421759365
0.139482719157702
0.29323262378881515
0.2843366140230411
0.2838330663004501
0.4300297550926986
0.33955901426718543
0.45638208590829327
0.7501182574196993
0.7652246890974289
0.7487754634927901
0.873990997177081
0.3415732051575494
0.3043106736858167
0.7430685893034256
0.7531395437552453
0.40132753490501255
0.06697184710460058
-0.08090333409628443
0.27006942854962995
0.4688029297322041
0.23347829404135198
0.01829556725413901
-0.01846341649500267
0.15895323109788664
0.12303349355306323
0.009903105210955977
-0.05522240024414436
-0.07318226901655604
-0.14552529182879376
-0.18043793392843518
-0.06730754558632791
-0.12941176470588234
0.10926985580224306
0.5032120241092546
0.5409781033035782
0.4993514915693904
0.619699397268635
0.1351186388952468
0.16835278858625158
0.672571908140688
0.7598535133897916
0.5690089265278097
0.4407721065079728
0.42281223773556104
0.8034943160143434
1.010955977721828
0.7585107194628824
0.4684672312504768
0.350133516441596
0.46309605554283967
0.370443274586099
0.23213550011444264
0.2187075608453498
0.22240024414435033
0.1032272831311513
0.044480048828870064
0.12941176470588234
-0.06797894254978255
-0.014267185473411156
0.28047608148317693
0.24153505760280766
0.12269779507133592
0.20964370183871214
-0.2704051270313573
-0.1696955825131609
0.43288319218738075
0.5889829861905852
0.34795147631036855
0.1304188601510643
0.09349202716105898
0.5003585870145724
0.7246051728084228
0.5423208972304875
0.4134126802471962
0.4359044785229267
0.6302738994430457
0.5765621423666744
0.4374151216906996
0.3838712138551919
0.3459372854200045
0.1594567788204776
-0.02937361715114061
0.0025177386129549098
-0.14518959334706644
-0.051529716945143814
0.21199359121080338
0.16633859769588769
0.058075837338826576
0.09651331349660487
-0.4996871900511177
-0.5507133592736705
-0.06932173647669183
0.008560311284046692
-0.24606698710612646
-0.46611734187838555
-0.48575570305943383
0.0005035477225909818
0.3409018081940947
0.22005035477225907
0.07335011825741969
0.08073548485542076
0.26939803158617537
0.2643625543602655
0.21719691767757685
0.2583199816891737
0.3415732051575494
0.3284809643701838
0.31404592965590905
0.37161821927214467
0.20527962157625693
0.30380712596322573
0.5476920729381246
0.4285191119249256
0.2643625543602655
0.29188982986190587
-0.3081712062256809
-0.3382162203402762
0.16600289921416037
0.23817807278553446
-0.03608758678568704
-0.26335545891508355
-0.3555046921492332
-0.011581597619592583
0.2056153200579843
0.018631265735866327
-0.17355611505302507
-0.22609292744335088
-0.033066300450141146
0.00016784924086366064
-0.01292439154650187
0.04917982757305257
0.1065842679484245
0.051865415426871134
0.027695124742504008
0.12471198596169988
-0.03172350652323186
0.12202639810788128
0.5074082551308461
0.5392996108949416
0.4604104676890211
0.5241931792172122
-0.05790798809796292
-0.11430533302815289
0.31773861295490957
0.2965896086060883
-0.06428625925078202
-0.3560082398718242
-0.44345769436179144
-0.049851224536507206
0.16197451743343252
-0.053208209353780414
-0.23515678644998858
-0.2509346150911726
-0.05354390783550774
-0.12974746318760969
-0.26536964980544747
-0.25563439383535513
-0.20712596322575721
-0.2834973678187228
-0.3002822919050888
-0.12370489051651787
-0.14317540245670252
0.07637140459296558
0.41408407721065077
0.37615014877546343
0.2757763027389944
0.34895857175555045
-0.19755855649652856
-0.1414969100480659
0.43120469977874415
0.5483634699015792
0.3039749752040894
0.07821774624246586
0.0015106431677729458
0.36624704356450744
0.5497062638284886
0.24623483634699012
-0.04615854123750667
-0.11699092088197145
0.042801556420233464
-0.021988250553139542
-0.15156786449988555
-0.17355611505302507
-0.17070267795834287
-0.2787975890745403
-0.3815213244831006
-0.3197528038452735
-0.4627603570611124
-0.32663462272068355
-0.022995345998321506
-0.08039978637369342
-0.1492179751277943
0.01326009002822919
-0.43456168459601735
-0.32445258258945603
0.26503395132372015
0.35802243076218815
0.08677805752651253
-0.10087739375906005
-0.10356298161287861
0.3409018081940947
0.6279240100709544
0.4996871900511177
0.3340199893186847
0.2787975890745403
0.44832532234683753
0.39662775616083007
0.2620126649881742
0.2012512397955291
0.16398870832379644
0.00788891432059205
-0.08812085145342184
-0.020309758144502935
-0.166674296177615
-0.033401998931868467
0.2715800717174029
0.20830090791180284
0.0528725108720531
0.0891279468986038
-0.46813153276874947
-0.43422598611429003
0.08409246967269397
0.13394369420920116
-0.12370489051651787
-0.2838330663004501
-0.23649958037689783
0.2576485847257191
0.5288929579613947
0.34543373769741353
0.19252307927061874
0.18916609445334553
0.36037232013427933
0.33015945677882047
0.2959182116426337
0.37514305333028153
0.4468146791790647
0.3590295262073701
0.26469825284199283
0.29625391012436103
0.11128404669260701
0.18715190356298161
0.40401312275883117
0.27141222247653923
0.12269779507133592
0.15324635690852215
-0.40502021820401307
-0.35214770733196
0.17405966277561608
0.21467917906462194
-0.08744945448996719
-0.32394903486686505
-0.40199893186846725
-0.0055390249485008005
0.23549248493171587
0.035416189822232394
-0.1304188601510643
-0.0971847104600595
0.18043793392843518
0.2093080033569848
0.15291065842679483
0.1918516823071641
0.23616388189517049
0.1461966887922484
0.08778515297169451
0.16684214541847867
0.03743038071259632
0.20964370183871214
0.5299000534065766
0.44966811627374675
0.3024643320363164
0.35332265201800567
-0.2687266346227206
-0.3459372854200045
0.0908064393072404
0.0797283894102388
-0.25261310749980925
-0.49431601434348055
-0.5312428473334858
-0.13931486991683834
0.07133592736705577
-0.12521553368429084
-0.3237811856260014
-0.3936064698252842
-0.23280689707789726
-0.2593270771343557
-0.34224460212100405
-0.3120317387655451
-0.23649958037689783
-0.2529488059815366
-0.2183718623636225
-0.03373769741359579
-0.09701686121919585
0.05790798809796292
0.3597009231708247
0.31102464332036317
0.20729381246662087
0.28719005111772333
-0.22206454566262301
-0.11967650873579004
0.42281223773556104
0.44664682993820093
0.12269779507133592
-0.1270618753337911
-0.21132219424734877
0.13142595559624626
0.26503395132372015
-0.03105210955977722
-0.26335545891508355
-0.2996108949416343
-0.11296253910124363
-0.15223926146334021
-0.2348210879682612
-0.23515678644998858
-0.23515678644998858
-0.34660868238345927
-0.4073701075761043
-0.3002822919050888
-0.3884031433585107
-0.2166933699549859
0.08207827878233005
0.04414435034714275
0.0052033264667734795
0.15626764324406803
-0.34862287327382313
-0.29491111619745175
0.22877851529716942
0.24791332875562672
-0.05387960631723506
-0.2452277409018082
-0.2297856107423514
0.21971465629053175
0.45168230716411073
0.22407873655298696
-0.006881818875410085
-0.06025787747005417
0.10591287098496985
-0.01628137636377508
-0.1918516823071641
-0.19957274738689249
-0.17372396429388878
-0.286854352635996
-0.33922331578545817
-0.21367208361943996
-0.29642175936522464
-0.14720378423743039
0.1257190814068818
0.0213168535896849
-0.10222018768596933
-0.003189135576409552
-0.5309071488517586
-0.4889448386358434
0.043976501106279084
0.16633859769588769
-0.020981155107957578
-0.1512321660181582
-0.11900511177233539
0.3090104524299992
0.5221789883268482
0.31941710536354617
0.14351110093842984
0.11061264972915236
0.32411688410772865
0.3207598992904554
0.26150911726558324
0.2707408255130846
0.24690623331044484
0.10457007705806058
-0.021652552071412222
-0.01628137636377508
-0.20444037537193865
-0.13276874952315554
0.08577096208133059
-0.0055390249485008005
-0.11061264972915236
-0.036423285267414354
-0.5614557106889448
-0.5159685664148927
-0.0387731746395056
-0.027695124742504008
-0.28920424200808725
-0.4797131303883421
-0.5122758831158922
-0.11581597619592585
0.12336919203479056
-0.009567406729228655
-0.08879224841687647
-0.00788891432059205
0.23851377126726178
0.184969863431754
0.09517051956969558
0.14351110093842984
0.1915159838254368
0.0971847104600595
0.06965743495841917
0.2307927061875334
0.16214236667429618
0.2724193179217212
0.47652399481193247
0.36473640039673455
0.22005035477225907
0.22240024414435033
-0.41844815747310593
-0.47685969329365985
-0.019806210421911954
0.02668802929732204
-0.22575722896162354
-0.4077058060578317
-0.4301976043335622
-0.0797283894102388
0.1032272831311513
-0.09617761501487754
-0.29323262378881515
-0.3429159990844587
-0.13713282978561073
-0.19084458686198216
-0.27493705653467615
-0.19420157167925536
-0.06092927443350881
-0.033234149691004806
0.006546120393682764
0.13746852826733807
0.020645456626230255
0.12605477988860914
0.37749294270237277
0.33267719539177537
0.2781261921110857
0.39125658045319295
-0.0750286106660563
-0.048508430609597926
0.35063706416418705
0.3550011444266422
0.0844281681544213
-0.19890135042343787
-0.38017853055619133
-0.10943770504310674
0.051865415426871134
-0.13780422674906534
-0.3217669947356374
-0.373464560921645
-0.20628671702143891
-0.21098649576562137
-0.2542915999084459
-0.30363927672236213
-0.36087586785687037
-0.45638208590829327
-0.45604638742656595
-0.32646677347981995
-0.37245746547646297
-0.13914702067597465
0.2724193179217212
0.4093842984664683
0.45604638742656595
0.5624628061341267
0.030380712596322572
0.059250782024872196
0.5006942854962997
0.5503776607919432
0.38101777676050963
0.2720836194399938
0.28517586022735936
0.6505836575875485
0.8135652704661631
0.5507133592736705
0.23817807278553446
0.035751888303959714
0.035416189822232394
-0.1411612115663386
-0.27476920729381243
-0.2761120012207217
-0.2845044632639048
-0.36490424963759815
-0.37212176699473565
-0.25597009231708245
-0.36675059128709847
-0.2959182116426337
-0.10154879072251469
-0.17540245670252536
-0.22407873655298696
-0.14653238727397572
-0.6453803311207752
-0.5322499427786678
0.10457007705806058
0.37917143511100937
0.30666056305790795
0.18480201419089035
0.13746852826733807
0.4758525978484779
0.7088273441672388
0.5611200122072174
0.38588540474555577
0.4093842984664683
0.6947280079346914
0.6802929732204166
0.5403067063401236
0.4422827496757458
0.3207598992904554
0.06596475165941862
-0.16566720073243305
-0.21803616388189515
-0.4201266498817426
-0.37615014877546343
-0.14586099031052108
-0.16163881895170518
-0.2059510185397116
-0.12504768444342718
-0.6665293354695964
-0.7239337758449683
-0.36943617914091703
-0.3298237582970931
-0.47316700999465927
-0.630106050202182
-0.6789501792935072
-0.22206454566262301
0.24472419317921723
0.34895857175555045
0.3304951552605478
0.35265125505455097
0.5080796520943008
0.42398718242160677
0.34811932555123215
0.35265125505455097
0.37950713359273663
0.4120698863202869
0.5134508278019378
0.6396734569314106
0.44899671931029217
0.4201266498817426
0.5268787670710307
0.33485923552300295
0.08711375600823987
-0.03440909437705043
-0.722590981918059
-0.797787441824979
-0.33922331578545817
-0.2046082246128023
-0.34929427023727777
-0.5107652399481193
-0.6151674677653163
-0.3568474860761425
-0.20628671702143891
-0.37245746547646297
-0.5090867475394828
-0.5090867475394828
-0.2861829556725414
-0.22844281681544215
-0.07872129396505684
0.18648050659952697
0.3805142290379186
0.3946135652704661
0.3919279774166476
0.45806057831692987
0.29994659342336155
0.39058518348973825
0.6618295567254139
0.7108415350576027
0.7806668192568856
0.9206530861371787
0.295246814679179
0.10255588616769665
0.3781643396658274
0.29877164873731593
-0.09768825818265049
-0.5111009384298466
-0.7623712520027466
-0.5399710078583962
-0.3311665522240024
-0.416433966582742
-0.5300679026474403
-0.5439993896391241
-0.3936064698252842
-0.5188220035095751
-0.6809643701838711
-0.7148699168383307
-0.6759288929579614
-0.7000991836423285
-0.6851606012054626
-0.48760204470893415
-0.35147631036850535
0.032730601968413826
0.5320820935378041
0.6977492942702372
0.7282978561074235
0.7890592813000685
0.2247501335164416
0.1884946974898909
0.6289311055161364
0.8384069581139848
0.8437781338216219
0.7464255741206988
0.5649805447470816
0.71117723353933
0.7585107194628824
0.42684061951628904
0.01560997940032044
-0.2823224231326772
-0.33183794918745707
-0.5493705653467612
-0.6821393148699167
-0.6742504005493246
-0.6581368734264134
-0.6989242389562829
-0.7199053940642404
-0.6611581597619592
-0.8266575112535287
-0.7575036240177004
-0.48407721065079723
-0.4582284275577936
-0.44060425726710917
-0.23465323872739755
-0.5433279926756693
-0.2781261921110857
0.44563973449301897
0.7370260166323338
0.631616693369955
0.4570534828717479
0.3597009231708247
0.6356450751506828
0.850156404974441
0.8162508583199818
0.8081940947585259
0.8790264744029908
0.9881284809643701
0.7467612726024262
0.4912947280079346
0.3274738689250019
0.11866941329060808
-0.2015869382772564
-0.4197909514000152
-0.42398718242160677
-0.5305714503700313
-0.38924238956282897
-0.036423285267414354
0.06428625925078202
0.06999313344014649
0.13344014648661018
-0.5463492790112154
-0.7269550621805143
-0.258655680170901
-0.037094682230869
-0.17943083848325322
-0.30330357824063475
-0.16549935149156939
0.46108186465247575
1.0143129625391012
1.1358358129243915
1.069367513542382
0.9978637369344625
1.1009231708247502
0.9404592965590903
0.820950637064164
0.9112535286488136
1.0881666285191118
1.1234149691004804
0.9975280384527351
0.8652628366521707
0.5225146868085755
0.33955901426718543
0.29491111619745175
0.005874723430228122
-0.3022964827954528
-0.4213015945677882
-1.1106584267948423
-1.2674296177615014
-0.8384069581139848
-0.6769359884031433
-0.8457923247119861
-1.13852140077821
-1.4344396124208438
-1.2969710841535058
-1.0703746089875636
-1.1187151903562982
-1.2576943617914091
-1.242923628595407
-0.8756694895857176
-0.6705577172503242
-0.46611734187838555
-0.21652552071412223
-0.07016098268101013
-0.08342107270923933
-0.09013504234378575
0.003692683299000534
-0.030380712596322572
0.2187075608453498
0.7012741283283741
0.8979934386205843
0.864591439688716
0.8263218127718014
0.06025787747005417
-0.2687266346227206
-0.06260776684214542
-0.17288471808957045
-0.5601129167620356
-0.9350881208514533
-1.1690699626153962
-0.9416342412451362
-0.6564583810177768
-0.6663614862287328
-0.7877164873731594
-0.8843976501106281
-0.8521705958648049
-1.0703746089875636
-1.150942244602121
-1.0086060883497368
-0.8874189364461738
-0.8548561837186236
-0.6970778973067826
-0.29692530708781567
-0.08879224841687647
0.1999084458686198
0.6128175783932249
0.7544823376821546
0.787380788891432
0.9055466544594492
0.34895857175555045
0.3019607843137255
0.933745326924544
1.3251697566186007
1.2419165331502247
0.950194552529183
0.6759288929579614
0.7705958648050659
0.8180971999694819
0.5255359731441214
0.16499580376897838
-0.06932173647669183
-0.048508430609597926
-0.22105745021744103
-0.30296787975890743
-0.2561379415579461
-0.20427252613107502
-0.26335545891508355
-0.3925993743801023
-0.3623865110246433
-0.6010681315327687
-1.2442664225223161
-1.8609445334554053
-2.250354772259098
-2.5121995880064087
-2.81902800030518
-3.15053025101091
-3.3709163042648966
-3.5659571221484705
-3.806988632028687
-4.0302281223773555
-4.173235675593194
-4.2193942168307
-4.228290226596474
-4.29089799343862
-4.424338139925231
-4.600579842832074
-4.766079194323645
-4.914793621728846
-5.012314030670633
-4.987136644541084
-4.847653925383383
-4.608300907911803
-4.26521705958648
-3.8222629129472803
-3.306797894254978
-2.73510337987335
-2.138231479362173
-1.5685511558709087
-1.0240482185091935
-0.4775310902571145
0.052201113908598454
0.6578011749446859
1.3721675440604257
2.0637064164187073
2.667963683527886
3.2074311436636913
3.7019150072480356
4.1571221484702825
4.503562981612878
4.690211337453269
4.753322652018006
4.748622873273822
4.7184100099183635
4.628442816815442
4.482749675745784
4.299458304722667
4.053727016098269
3.74018463416495
3.4011291676203554
3.089265278095674
2.7962005035477224
2.5450980392156857
2.344686045624475
2.1469596398870827
1.9700465400167848
1.845838101777676
1.720622568093385
1.6890669108110172
1.7857480735484854
1.8878004119935914
1.9465476462958724
2.014023041123064
2.1442740520332646
2.360463874265659
2.5766536964980546
2.7330891889829863
2.860990310521095
2.9873807888914317
3.094972152285038
3.1084000915541314
3.041260395208667
2.947264820325017
2.819699397268635
2.6444647898069733
2.4490882734416726
2.2704966811627374
2.064377813382162
1.8260318913557638
1.546059357595178
1.173098344396124
0.7417257953765163
0.3180743114366369
-0.1282368200198367
-0.45940337224383915
-0.6017395284962234
-0.6789501792935072
-0.7336690318150606
-0.7286335545891508
-0.6487373159380483
-0.4797131303883421
-0.2992751964599069
-0.17607385366598
-0.07234302281223774
0.06562905317769131
0.2588235294117647
0.4526894026092928
0.6531013962005036
0.8968184939345386
1.1522850385290302
1.372503242542153
1.552437628747997
1.6917524986648356
1.7407644769970243
1.720622568093385
1.6501258869306477
1.4896620126649882
1.262058442053864
1.0052491035324636
0.6819714656290532
0.3917601281757839
0.15928892957961394
-0.14082551308461125
-0.519829098954757
-0.8931258106355383
-1.1932402532997635
-1.3822384985122453
-1.5176928358892194
-1.6434119172961013
-1.7202868696116576
-1.7177691309987027
-1.6377050431067366
-1.5490806439307239
-1.5447165636682687
-1.732036316472114
-1.945372701609827
-2.003616388189517
-1.8747081712062255
-1.5967498283360035
-1.2388952468146792
-0.8186007476920728
-0.36221866178377965
0.042801556420233464
0.36507209887846187
0.6151674677653163
0.744411383230335
0.8696269169146257
1.0297550926985581
1.1156939040207523
1.1046158541237507
1.0458686198214693
0.9760433356221866
0.9055466544594492
0.7544823376821546
0.4852521553368428
0.16231021591515984
-0.16231021591515984
-0.45638208590829327
-0.7415579461356527
-0.9872892347600518
-1.1381857022964827
-1.2023041123064009
-1.2093537804226748
-1.1600061036087586
-1.0519111924925613
-0.9245136186770427
-0.7726100556954298
-0.6071107042038605
-0.4688029297322041
-0.3284809643701838
-0.16197451743343252
-0.02668802929732204
0.1807736324101625
0.4859235523002976
0.7692530708781566
0.9673151750972762
1.0864881361104752
1.1626916914625771
1.2281528953994048
1.2271457999542228
1.1170366979476616
0.9377737087052719
0.739375906004425
0.5421530479896238
0.295246814679179
-0.003189135576409552
-0.31908140688181885
-0.6383306630045015
-0.9528801403830014
-1.2348668650339514
-1.445685511558709
-1.6021210040436409
-1.6831921873807891
-1.6944380865186541
-1.6947737850003814
-1.681010147249561
-1.6375371938658732
-1.614373998626688
-1.5007400625619896
-1.2603799496452275
-1.0186770428015566
-0.8078583962767987
-0.576226443884947
-0.2890363927672236
0.06680399786373693
0.406530861371786
0.6584725719081408
0.8414282444495306
0.9706721599145494
1.0549324788281071
1.051575494010834
0.9770504310673686
0.8837262531471733
0.7679102769512475
0.6280918593118181
0.47383840695811397
0.31337453269245436
0.11027695124742502
-0.12303349355306323
-0.388738841840238
-0.705806057831693
-1.0337834744792858
-1.3421225299458304
-1.6544899671931028
-1.828046082246128
-1.8230106050202182
-1.7729915312428475
-1.7209582665751126
-1.6249485008010986
-1.4658274204623483
-1.2341954680704967
-1.0039063096055543
-0.8266575112535287
-0.6480659189745938
-0.41844815747310593
-0.1381399252307927
0.13243305104142825
0.3972991531242847
0.6802929732204166
0.9431448844129092
1.145906767376211
1.2848859388113223
1.3775387197680629
1.40170901045243
1.3829098954756998
1.3218127718013275
1.1747768368047606
0.962951094834821
0.706813153276875
0.3503013656824597
0.011245899137865261
-0.2574807354848554
-0.550041962310216
-0.87348744945449
-1.1653772793163957
-1.3778744182497902
-1.4816052491035323
-1.5275959411001756
-1.5621728847180896
-1.5633478294041352
-1.5071183337148089
-1.3896238651102462
-1.267093919279774
-1.1375143053330283
-0.9569085221637292
-0.7178912031738764
-0.4318760967421988
-0.11195544365606165
0.23448538948653389
0.5728694590676737
0.9089036392767222
1.2184176394293125
1.4278934920271609
1.5232318608377202
1.5329671168078127
1.4211795223926145
1.3248340581368734
1.2946211947814144
1.2090180819409473
1.0351262684061953
0.8147402151522086
0.5725337605859464
0.34056610971236745
0.054551003280689715
-0.31068894483863574
-0.688014038300145
-1.009948882276646
-1.2462806134126803
-1.4379644464789807
-1.5672083619439994
-1.5967498283360035
-1.5497520408941785
-1.45307087815671
-1.313084611276417
-1.1180437933928435
-0.9048752574959945
-0.6625009536888684
-0.39226367589837485
-0.1364614328221561
0.10591287098496985
0.34728007934691385
0.5339284351873044
0.7779812314030671
1.1012588693064773
1.3493400473029677
1.4624704356450748
1.4879835202563516
1.4809338521400777
1.4809338521400777
1.4205081254291596
1.2462806134126803
1.0075989929045548
0.7482719157701991
0.47887388418402377
0.14082551308461125
-0.2341496910048066
-0.5802548256656748
-0.9005111772335392
-1.1866941329060807
-1.4043945983062485
-1.5242389562829022
-1.5725795376516365
-1.5326314183260854
-1.4290684367132065
-1.3362478065156025
-1.2471198596169986
-1.1363393606469827
-1.0492256046387427
-0.8629129472800793
-0.5443350881208514
-0.23263904783703362
0.0481727321278706
0.34358739604791333
0.6806286717021438
1.061310749980926
1.3802243076218812
1.5635156786449989
1.6377050431067366
1.6447547112230103
1.613870450904097
1.5064469367513542
1.3362478065156025
1.1707484550240328
1.003570611123827
0.7984588387884336
0.5423208972304875
0.26637674525062943
-0.03743038071259632
-0.33955901426718543
-0.6326237888151368
-0.9478446631570915
-1.2446021210040437
-1.4789196612497137
-1.6806744487678342
-1.7223010605020217
-1.5860074769207293
-1.4336003662165255
-1.310734721904326
-1.1690699626153962
-0.9716792553597314
-0.6863355458915084
-0.3969634546425574
-0.16398870832379644
0.05958648050659952
0.3096818493934539
0.5832761120012206
0.8248111696040283
1.0304264896620126
1.210360875867857
1.3285267414358741
1.375524528877699
1.3647821774624247
1.3255054551003278
1.2496375982299535
1.1546349279011214
1.024216067750057
0.8041657129777982
0.5030441748683909
0.14586099031052108
-0.29826810101472495
-0.6742504005493246
-0.9109178301670862
-1.1291218432898449
-1.355718318455787
-1.5324635690852215
-1.6007782101167314
-1.5324635690852215
-1.4158083466849776
-1.3221484702830546
-1.224124513618677
-1.0891737239642938
-0.9045395590142673
-0.7279621576256962
-0.5406424048218509
-0.29423971923399705
-0.007553215838864729
0.2845044632639048
0.5896543831540398
0.9297169451438162
1.2301670862897687
1.4809338521400777
1.6595254444190126
1.701823453116655
1.630655374990463
1.4849622339208055
1.2372167544060426
1.0371404592965592
0.9297169451438162
0.7625391012436102
0.5047226672770275
0.20393682764934767
-0.0955062180514229
-0.34123750667582203
-0.5956969558251316
-0.8917830167086288
-1.1616845960173952
-1.3563897154192417
-1.4520637827115281
-1.4910048065918975
-1.4839551384756238
-1.3906309605554286
-1.2377203021286334
-1.0691996643015185
-0.8790264744029908
-0.6447089341573206
-0.3889066910811017
-0.09282063019760432
0.22273594262607763
0.4896162355992981
0.7165484092469673
0.9320668345159074
1.0817883573662928
1.2822003509575033
1.538673990997177
1.672281986724651
1.6669108110170134
1.591042954146639
1.4923476005188068
1.4225223163195237
1.3016708628976883
1.06332494087129
0.7568322270542458
0.4241550316624704
0.08409246967269397
-0.28836499580376895
-0.6638437476157778
-0.9787289234760052
-1.2415808346684978
-1.4480354009308003
-1.5578088044556342
-1.5467307545586328
-1.47186999313344
-1.332890821698329
-1.1536278324559395
-1.012970168612192
-0.8904402227817196
-0.7504539559014267
-0.6450446326390478
-0.4280155642023346
-0.05790798809796292
0.29256122682536045
0.5785763332570382
0.8491493095292592
1.1297932402532997
1.428900587472343
1.6393835355153732
1.6904097047379258
1.6413977264057371
1.5453879606317233
1.4322575722896163
1.2660868238345921
1.0532539864194705
0.8337071793698023
0.5839475089646753
0.2818188754100862
-0.041123064011596856
-0.3298237582970931
-0.6114747844663156
-0.8568703746089875
-1.0549324788281071
-1.2623941405355916
-1.4534065766384374
-1.5727473868925002
-1.6706034943160146
-1.6333409628442819
-0.31740291447318225
2.85662623025864
4.503562981612878
4.183978027008468
4.169207293812466
5.017853055619135
5.47708857862211
5.479774166475929
5.479774166475929
5.479774166475929
5.480445563439384
5.479774166475929
5.479774166475929
5.48078126192111
5.479774166475929
5.480445563439384
5.427405203326466
5.15884641794461
4.601586938277257
3.8264591439688713
3.405828946364538
3.1352559700923166
2.48198672465095
1.729015030136568
1.137178606851301
-0.04078736552986953
-0.7138628213931487
-0.8551918822003509
-1.3634393835355152
-2.1526665140764476
-2.8243991760128178
-3.3175402456702527
-3.344563973449302
-3.4417486839093616
-3.917769130998703
-4.377172503242542
-4.650598916609445
-4.697764553292133
-4.917982757305257
-5.103456168459601
-5.1512932021057445
-5.171602960250247
-5.222796978713664
-5.1538109407187
-4.929396505683985
-4.927046616311894
-4.717738612954909
-4.33907072556649
-4.260349431601434
-4.246250095368886
-4.058091096360723
-4.44951552605478
-4.303990234225986
-3.6621347371633473
-3.527687495231555
-3.7754329747463182
-3.9093766689555194
-3.8684214541847863
-3.521141374837873
-3.4187533379110393
-3.65810635538262
-3.7544518196383607
-3.6433356221866178
-3.3391927977416644
-3.245029373617151
-3.1730220492866406
-2.9935912108033875
-2.881803616388189
-3.005004959182116
-3.1033646143282216
-2.9986266880292973
-3.097657740138857
-3.024139772640573
-2.7141222247653927
-2.5843747615777826
-2.428946364538033
-2.097611963073167
-2.3302510109102004
-2.0670634012359805
-1.3584039063096054
-1.0126344701304646
-0.9750362401770046
-0.9105821316853588
-0.71117723353933
-0.08946364538033112
0.3939421683070115
0.43422598611429003
0.4241550316624704
0.5428244449530785
0.8135652704661631
0.8551918822003509
0.8820477607385366
0.9740291447318227
1.0754100862134737
1.1210650797283894
1.2321812771801328
1.4567635614557106
1.457938506141756
1.3666285191119247
-2.4030975814450293
-5.480949111161975
-5.4923628595407035
-5.493705653467612
-5.493873502708476
-5.494209201190204
-5.494377050431067
-5.49454489967193
-4.652277409018082
-3.575020981155108
-2.4171969176775767
-1.2996566720073244
-0.25395590142671853
0.8128938735027085
1.7011520561532003
2.3879911497672994
3.1231708247501335
3.768719005111772
4.153765163653009
4.35048447394522
4.4384374761577785
4.436423285267414
4.415945677882047
4.441794460975052
4.670069428549629
5.198458838788433
5.369665064469366
5.137361715114061
5.019867246509499
5.149446860456245
5.142732890821698
5.051422903791867
5.00845349813077
4.950713359273671
4.8511787594415186
4.750637064164187
4.6848401617456314
4.636499580376897
4.549889372091248
4.410910200656138
4.234332799267567
4.063126573586633
3.9060196841382466
3.742198825055314
3.552864881361104
3.197024490730144
2.860990310521095
2.7646448462653543
2.770687418936446
2.706904707408255
2.610223544670786
2.5555046921492335
2.4930647745479515
2.3826199740596627
2.2651255054551003
2.1738155184252688
2.081162737468528
1.9683680476081482
1.8562447547112229
1.745464255741207
1.6333409628442819
1.7894407568474857
2.5252918287937742
3.234287022201877
3.3443961242084383
3.016754406042572
2.6874341954680703
2.4099794003204393
2.110704203860532
1.7615777828641184
1.368139162279698
0.9951781490806441
0.6960708018616005
0.42919050888838023
0.18832684824902723
-0.06865033951323721
-0.30380712596322573
-0.45067521171892877
-0.5369497215228504
-0.6228885328450446
-0.7138628213931487
-0.7991302357518881
-0.8763408865491722
-0.9451590753032731
-1.0186770428015566
-1.0982375829709314
-1.1793087663080797
-1.240909437705043
-1.0253910124361028
-0.6863355458915084
-0.6581368734264134
-0.8911116197451744
-1.0012207217517355
-0.8603952086671244
-0.8290074006256198
-1.0146486610208285
-1.2639047837033646
-1.4048981460288394
-1.4040588998245211
-1.3416189822232394
-1.2874036774242772
-1.253330281528954
-1.2174105439841307
-1.1777981231403065
-1.1606775005722132
-1.1892118715190356
-1.294789044022278
-1.4107728694590678
-1.4633096818493931
-1.460456244754711
-1.45995269703212
-1.539681086442359
-1.7085374227512014
-1.6930952925917448
-1.4775768673228045
-1.3097276264591438
-1.224124513618677
-1.153963530937667
-1.0616464484626533
-0.9582513160906386
-0.8890974288548104
-0.8437781338216219
-0.7648889906157015
-0.6490730144197757
-0.4889448386358434
-0.267048142214084
-0.08207827878233005
0.013931486991683832
0.028702220187685965
0.03407339589532311
0.03172350652323186
0.005874723430228122
-0.020981155107957578
-0.03105210955977722
-0.032730601968413826
-0.026352330815594724
-0.01829556725413901
-0.013931486991683832
-0.001846341649500267
0.01326009002822919
0.011581597619592583
-0.008224612802319372
-0.03205920500495917
-0.050522621499961846
-0.06546120393682765
-0.07066453040360113
-0.06428625925078202
-0.043472953383688104
-0.021652552071412222
-0.011581597619592583
-0.014267185473411156
-0.012252994583047227
0.0010070954451819635
0.02400244144350347
0.04414435034714275
0.050186923018234526
0.04649423971923399
0.03843747615777828
0.02265964751659419
0.004867627985046159
-0.0055390249485008005
-0.012588693064774548
-0.017624170290684367
-0.01628137636377508
0.011245899137865261
0.3543297474631876
1.0908522163729304
1.5673762111848628
1.4879835202563516
1.214724956130312
1.0216983291371022
0.895140001525902
0.7742885481040666
0.6484016174563211
0.5164721141374836
0.3868925001907378
0.2818188754100862
0.20057984283207447
0.11296253910124363
0.021988250553139542
-0.06160067139696345
-0.1381399252307927
-0.2046082246128023
-0.26016632333867395
-0.31337453269245436
-0.36742198825055317
-0.4171053635461967
-0.46108186465247575
-0.5037155718318455
-0.5399710078583962
-0.5627985046158541
-0.5792477302204929
-0.5977111467154955
-0.6124818799114976
-0.6155031662470435
-0.590997177080949
-0.5542381933318073
-0.5339284351873044
-0.5255359731441214
-0.5137865262836652
-0.49700160219729916
-0.47954528114747846
-0.4620889600976577
-0.44765392538338294
-0.44060425726710917
-0.43321889066910807
-0.4234836346990158
-0.4756847486076141
-0.5898222323949035
-0.6359807736324101
-0.5983825436789503
-0.54198519874876
-0.5053940642404822
-0.4741741054398413
-0.4288548104066529
-0.37279316395819023
-0.31371023117418173
-0.24690623331044484
-0.18883039597161821
-0.19218738078889144
-0.27275501640344857
-0.3546654459449149
-0.38420691233691917
-0.35097276264591437
-0.2824902723735408
-0.2056153200579843
-0.13276874952315554
-0.07704280155642022
-0.056900892652780956
-0.036423285267414354
0.01896696421759365
0.08174258030060273
0.12739757381551842
0.16818493934538795
0.6091248950942245
1.5759365224689097
2.0945906767376212
1.9824673838406957
1.7065232318608377
1.4953688868543524
1.3238269626916912
1.139192797741665
0.9471732661936368
0.8081940947585259
0.688014038300145
0.538628213931487
0.33620202944991223
0.06831464103150987
-0.1693598840314336
-0.3499656672007324
-0.6071107042038605
-0.8877546349279012
-0.9745326924544137
-0.9045395590142673
-0.8078583962767987
-0.7699244678416112
-0.7709315632867932
-0.7605249103532463
-0.721583886472877
-0.6732433051041428
-0.6092927443350882
-0.553398947127489
-0.5117723353933012
-0.44664682993820093
-0.4031738765545128
-0.39897764553292137
-0.3952849622339208
-0.44261844815747314
-0.5191577019913023
-0.5050583657587548
-0.43791866941329055
-0.4016632333867399
-0.3640650034332799
-0.32999160753795675
-0.32310978866254675
-0.33989471274891275
-0.3378805218585489
-0.2902113374532692
-0.24791332875562672
-0.23515678644998858
-0.18631265735866331
-0.10675211718928816
-0.053208209353780414
-0.06495765621423667
-0.14032196536202027
-0.1492179751277943
-0.06865033951323721
-0.024338139925230793
-0.05790798809796292
-0.04716563668268864
0.03843747615777828
0.1406576638437476
0.1884946974898909
0.20527962157625693
0.24757763027389945
0.3138780804150454
0.3548332951857786
0.3279774166475929
0.2818188754100862
0.3059891660944533
0.37447165636682683
0.42684061951628904
0.44060425726710917
0.4503395132372015
0.5248645761806667
0.5805905241474021
0.52822156099794
0.4066987106126497
0.29390402075226973
0.203265430685893
0.12739757381551842
0.09651331349660487
0.10691996643015184
0.10826276035706112
0.0788891432059205
0.06025787747005417
0.09785610742351414
0.11934081025406272
0.0971847104600595
0.09449912260624094
0.18648050659952697
0.3499656672007324
0.4771953917753872
0.5295643549248493
0.5396353093766689
0.5241931792172122
0.48256656748302434
0.44798962386511015
0.42919050888838023
0.4120698863202869
0.40535591668574045
0.39662775616083007
0.3573510337987335
0.32277409018081943
0.3046463721675441
0.27695124742504
0.24892042420080873
0.24489204242008086
0.25261310749980925
0.258655680170901
0.2737621118486305
0.28953994048981463
0.295246814679179
0.2881971465629053
0.2630197604333562
0.23247119859617
0.21132219424734877
0.1965514610513466
0.17758449683375294
0.15022507057297627
0.1257190814068818
0.11866941329060808
0.11262684061951626
0.09416342412451362
0.07435721370260165
0.06025787747005417
0.04414435034714275
0.010406652933546959
-0.06764324406805522
-0.2064545662623026
-0.3823605706874189
-0.5238574807354848
-0.5911650263218127
-0.6044251163500419
-0.5946898603799496
-0.583611810482948
-0.5862973983367666
-0.5896543831540398
-0.5701838712138552
-0.5315785458152131
-0.5043869687953002
-0.4912947280079346
-0.45671778439002053
-0.3996490424963759
-0.3402304112306401
-0.2845044632639048
-0.22508583199816892
-0.1733882658121614
-0.14317540245670252
-0.12420843823910888
-0.0988632028686961
-0.06831464103150987
-0.03810177767605096
-0.02333104448004883
-0.03608758678568704
-0.06797894254978255
-0.0908064393072404
-0.09416342412451362
-0.08979934386205844
-0.09416342412451362
-0.11094834821087966
-0.12504768444342718
-0.12336919203479056
-0.11027695124742502
-0.0891279468986038
-0.062272068360418105
-0.03474479285877775
-0.006881818875410085
0.022323949034866862
0.05387960631723506
0.08107118333714809
0.09684901197833219
0.10389868009460593
0.10826276035706112
0.11061264972915236
0.11195544365606165
0.11396963454642556
0.0988632028686961
0.07435721370260165
0.06294346532387274
0.0473334859235523
-0.0015106431677729458
-0.05387960631723506
-0.1065842679484245
-0.13411154345006485
-0.07335011825741969
0.019302662699320974
0.08778515297169451
0.139482719157702
0.16600289921416037
0.12437628747997252
0.04615854123750667
0.01594567788204776
0.03440909437705043
0.05488670176241703
0.06126497291523613
0.057572289616235596
0.04750133516441596
0.03608758678568704
0.0260166323338674
0.024673838406958113
0.030045014114595252
0.033066300450141146
0.037094682230869
0.03608758678568704
0.0213168535896849
0.003860532539864194
-0.020309758144502935
-0.048508430609597926
-0.06294346532387274
-0.06932173647669183
-0.06462195773250935
-0.04716563668268864
-0.030380712596322572
-0.012252994583047227
-0.0008392462043183033
0.0025177386129549098
0.0025177386129549098
0.01326009002822919
0.07368581673914701
0.13327229724574652
0.13142595559624626
0.09449912260624094
0.06260776684214542
0.04548714427405204
0.03675898374914168
0.026352330815594724
0.011917296101319903
-0.003860532539864194
-0.020309758144502935
-0.03843747615777828
-0.03994811932555123
0.030380712596322572
0.10691996643015184
0.11111619745174332
0.06327916380560006
0.01560997940032044
-0.021988250553139542
-0.058915083543144876
-0.09147783627069504
-0.11027695124742502
-0.11783016708628975
-0.11430533302815289
-0.10222018768596933
-0.08963149462119477
-0.0861066605630579
-0.08644235904478523
-0.08375677119096665
-0.08023193713282978
-0.07872129396505684
-0.07872129396505684
-0.08426031891355765
-0.09181353475242236
-0.07603570611123828
-0.05253681239032577
-0.040451667048142216
-0.03440909437705043
-0.024338139925230793
-0.009903105210955977
0.001846341649500267
0.008896009765774012
0.009903105210955977
0.003189135576409552
-0.010238803692683297
-0.02400244144350347
-0.040451667048142216
-0.05270466163118945
-0.052201113908598454
-0.03910887312123293
-0.022323949034866862
-0.007553215838864729
0.003189135576409552
0.0052033264667734795
-0.0028534370946822307
-0.019974059662775615
-0.03373769741359579
-0.04078736552986953
-0.04649423971923399
-0.05958648050659952
-0.14653238727397572
-0.41475547417410535
-0.6893568322270542
-0.8031586175326162
-0.8380712596322575
-0.8494850080109865
-0.8233005264362555
-0.7670710307469292
-0.7125200274662393
-0.6651865415426871
-0.6071107042038605
-0.5345998321507592
-0.45806057831692987
-0.38554970626382845
-0.40032043945983065
-0.7004348821240558
-0.9575799191271839
-0.9266956588082703
-0.7709315632867932
-0.6415197985809108
-0.5158007171740291
-0.39629205767910275
-0.36003662165255207
-0.34929427023727777
-0.27006942854962995
-0.15056076905470359
-0.030380712596322572
0.07301441977569237
0.16197451743343252
0.23952086671244371
0.3026321812771801
0.361043717097734
0.4174410620279241
0.4627603570611124
0.494651712825208
0.5265430685893033
0.5664911879148548
0.5893186846723125
0.4953231097886625
0.3375448233768215
0.26637674525062943
0.287861448081178
0.3409018081940947
0.39595635919737543
0.44832532234683753
0.4993514915693904
0.545006485084306
0.5758907454032196
0.5943541618982223
0.6275883115892271
0.6813000686655984
0.7046311131456473
0.693385214007782
0.6766002899214161
0.664179446097505
0.6500801098649576
0.6381628137636377
0.6341344319829099
0.6381628137636377
0.6450446326390478
0.6484016174563211
0.6470588235294118
0.6421911955443655
0.6349736781872282
0.6228885328450446
0.6054322117952239
0.5879758907454032
0.571190966659037
0.5476920729381246
0.5178149080643931
0.49095902952620735
0.4657816433966583
0.4402685587853818
0.41139848935683215
0.3778286411841001
0.34341954680704967
0.31001754787518115
0.2761120012207217
0.23985656519417106
0.2012512397955291
0.16466010528725106
0.1304188601510643
0.09785610742351414
0.06613260090028229
0.04078736552986953
0.021149004348821242
0.003189135576409552
-0.012588693064774548
-0.025009536888685433
-0.036423285267414354
-0.050522621499961846
-0.06596475165941862
-0.08274967574578469
-0.09416342412451362
-0.10490577553978789
-0.11833371480888075
-0.13780422674906534
-0.18681620508125427
-0.24254215304798965
-0.26335545891508355
-0.2576485847257191
-0.24824902723735406
-0.23851377126726178
-0.18916609445334553
-0.12068360418097199
-0.0988632028686961
-0.11917296101319905
-0.13780422674906534
-0.1398184176394293
-0.13713282978561073
-0.1364614328221561
-0.13579003585870145
-0.13377584496833753
-0.13579003585870145
-0.13914702067597465
-0.13847562371252
-0.13881132219424736
-0.14015411612115664
-0.14048981460288396
-0.13914702067597465
-0.13780422674906534
-0.13713282978561073
-0.13746852826733807
-0.13847562371252
-0.14183260852979326
-0.1445181963836118
-0.14586099031052108
-0.147875181200885
-0.14854657816433967
-0.1445181963836118
-0.14048981460288396
-0.14183260852979326
-0.1411612115663386
-0.1364614328221561
-0.13209735255970093
-0.1270618753337911
-0.12504768444342718
-0.12907606622415504
-0.1304188601510643
-0.1257190814068818
-0.12202639810788128
-0.11934081025406272
-0.11900511177233539
-0.11766231784542608
-0.11363393606469825
-0.1096055542839704
-0.10289158464942397
-0.08979934386205844
-0.07435721370260165
-0.06596475165941862
-0.06495765621423667
-0.06327916380560006
-0.05656519417105363
-0.022323949034866862
0.03407339589532311
0.06361486228732739
0.06562905317769131
0.06462195773250935
0.06630045014114595
0.061432822156099784
0.05253681239032577
0.042801556420233464
0.03407339589532311
0.027023727779049357
0.016617074845502403
0.008392462043183033
0.009231708247501335
0.009903105210955977
0.006546120393682764
0.007721065079728388
0.02366674296177615
0.08358892195010299
0.21736476691844053
0.4486610208285649
0.5926756694895857
0.5638056000610361
0.46897077897306777
0.3925993743801023
0.37212176699473565
0.45638208590829327
0.5362783245593958
0.5235217822537575
0.46947432669565886
0.4234836346990158
0.3885709925993744
0.3570153353170062
0.3200885023270008
0.269062333104448
0.21098649576562137
0.15660334172579538
0.10859845883878842
0.06663614862287326
0.02333104448004883
-0.029037918669413288
-0.09282063019760432
-0.17070267795834287
-0.27946898603799497
-0.3781643396658274
-0.40703440909437705
-0.18983749141680015
0.17238117036697947
0.31169604028381775
0.24354924849317158
0.15727473868925002
0.10457007705806058
0.05958648050659952
0.0025177386129549098
-0.07368581673914701
-0.13310444800488286
-0.17758449683375294
-0.24052796215762567
-0.3090104524299992
-0.35147631036850535
-0.38823529411764707
-0.5258716716258488
-1.0488899061570152
-1.5594872968642708
-1.665400167849241
-1.5309529259174488
-1.4090943770504312
-1.3424582284275577
-1.3127489127946899
-1.259708552681773
-1.1725947966735333
-1.3456473640039672
-1.602792401007095
-1.5826504921034559
-1.3464866102082855
-1.0838025482566567
-0.8078583962767987
-0.4026703288319219
0.035416189822232394
0.40401312275883117
0.7481040665293354
1.1355001144426644
1.555458915083543
1.7317006179903869
1.701823453116655
1.7145799954222933
1.650461585412375
1.4453498130769817
1.2023041123064009
0.9523765926604105
0.739375906004425
0.5779049362935836
0.3838712138551919
0.10389868009460593
0.027359426260776684
0.30296787975890743
0.4792095826657511
0.3952849622339208
0.18648050659952697
0.005874723430228122
-0.07737850003814756
-0.08812085145342184
-0.07150377660791943
-0.05857938506141757
-0.06965743495841917
-0.08879224841687647
-0.004867627985046159
0.15492484931715875
0.16231021591515984
-0.04582284275577936
-0.37413595788509957
-0.583611810482948
-0.642023346303502
-0.6252384222171359
-0.574212252994583
-0.5164721141374836
-0.46813153276874947
-0.46645304036011287
-0.5837796597238117
-0.7266193636987869
-0.7897306782635233
-0.8102082856488898
-0.7776455329213398
-0.6635080491340505
-0.5695124742504005
-0.5179827573052568
-0.4604104676890211
-0.22844281681544215
1.0522468909742884
3.2728923476005187
4.766750591287098
5.228671702143893
5.476417181658655
5.479774166475929
5.479774166475929
5.479774166475929
5.479774166475929
5.479774166475929
5.480445563439384
5.480445563439384
5.480445563439384
5.481116960402838
5.379736018921186
5.109163042648966
4.835233081559472
4.378011749446861
3.9624170290684364
3.641992828259708
2.7082475013351646
2.3960479133287556
2.5833676661326006
2.1932860303654533
1.2929427023727778
0.0703288319218738
-1.4366216525520714
-2.69750514991989
-3.808331425955596
-4.959945067521172
-5.489173723964294
-5.4928664072632944
-5.493705653467612
-5.49404135194934
-5.494209201190204
-5.494209201190204
-5.494377050431067
-5.49454489967193
-5.494712748912795
-5.494712748912795
-5.494712748912795
-5.494880598153658
-5.494712748912795
-5.494880598153658
-5.49454489967193
-5.494712748912795
-5.494712748912795
-5.398870832379645
-4.760540169375143
-4.203616388189517
-3.5871061264972917
-2.842694743266956
-1.9750820172426946
-1.1918974593728542
-0.6396734569314106
-0.19118028534370946
0.25496299687190055
0.6806286717021438
0.9955138475623714
1.177126726176852
1.3218127718013275
1.4216830701152054
1.4339360646982529
1.368139162279698
1.2758220798046847
1.0992446784161136
0.9015182726787213
0.6859998474097809
0.35231555657282365
-0.008224612802319372
-0.29356832227054247
-0.595025558861677
-0.734004730296788
-0.6668650339513237
-0.649408712901503
-0.6849927519645991
-0.6457160296025024
-0.482230869001297
-0.1461966887922484
0.21635767147325857
0.47383840695811397
0.7118486305027847
1.0055848020141909
1.3664606698710613
1.6920881971465624
1.918348973830777
2.1019760433356223
2.237933928435187
2.306752117189288
2.3336079957274736
2.3631494621194777
2.33159380483711
2.2809033340962843
2.1738155184252688
1.8857862211032272
1.470527199206531
1.0206912336919205
0.4724956130312047
0.03743038071259632
-0.21937895780880443
-0.534096284428168
-0.8760051880674449
-1.117372396429389
-1.2049897001602197
-1.1059586480506598
-0.9955138475623714
-0.9837644007019148
-0.9543907835507744
-0.8357213702601664
-0.6247348744945449
-0.37682154573891813
-0.12907606622415504
0.18110933089188982
0.5429922941939421
0.9256885633630885
1.3303730830853742
1.7642633707179367
2.137224383916991
2.4685587853818567
2.722682536049439
2.7827725642786296
2.705897611963073
2.578667887388418
2.324208438239109
2.138231479362173
2.0593423361562526
1.8173037308308537
1.3973449301899747
0.9377737087052719
0.5186541542687114
0.21165789272907606
-0.12974746318760969
-0.5878080415045395
-1.0126344701304646
-1.3016708628976883
-1.4453498130769817
-1.5351491569390403
-1.6115205615320058
-1.5969176775768672
-1.4982223239490347
-1.3397726405737391
-1.1052872510872052
-0.7709315632867932
-0.40971999694819555
0.03205920500495917
0.5228503852903028
0.9053788052185856
1.2157320515754941
1.519874876020447
1.7058518348973832
1.9371480888075072
2.2439765011062787
2.3906767376211184
2.377584496833753
2.3127946898603797
2.2530403601129163
2.2449835965514615
2.134203097581445
1.812268253604944
1.3815671015487907
0.9357595178149081
0.517311360341802
0.06999313344014649
-0.4265049210345616
-0.8588845654993513
-1.1878690775921263
-1.4275577935454336
-1.559822995345998
-1.546059357595178
-1.479758907454032
-1.349172198062104
-1.1687342641336689
-1.0524147402151522
-0.9599298084992752
-0.8092011902037078
-0.6677042801556421
-0.35231555657282365
0.14955367360952163
0.5785763332570382
0.9203173876554511
1.2697795071335927
1.6454261081864652
2.0637064164187073
2.347371633478294
2.3879911497672994
2.3228656443121993
2.2429694056610967
2.160387579156176
1.9999237048905165
1.7367360952162965
1.4324254215304797
1.0824597543297474
0.674586099031052
0.25362020294499127
-0.12437628747997252
-0.5067368581673914
-0.8182650492103455
-1.0619821469443806
-1.360082398718242
-1.639047837033646
-1.8109254596780344
-1.9676966506446936
-1.9468833447775995
-1.7253223468375674
-1.56083009079118
-1.4492103456168457
-1.2573586633096818
-0.9293812466620889
-0.4459754329747464
0.017959868772411687
0.35365835049973293
0.6705577172503242
1.0274052033264667
1.3896238651102462
1.6595254444190126
1.799847409781033
1.8757152666514076
1.9039139391165028
1.873029678797589
1.8072327763790341
1.7474784466315707
1.62729839017319
1.4725413900968947
1.2392309452964065
0.8019836728465705
0.2635233081559472
-0.25395590142671853
-0.8229648279545281
-1.236881055924315
-1.432928969253071
-1.6481116960402837
-1.8750438696879528
-1.991699092088197
-1.9613183794918747
-1.7615777828641184
-1.5564660105287251
-1.4617990386816204
-1.357732509346151
-1.1583276112001222
-0.8509956511787593
-0.510429541466392
-0.1733882658121614
0.2341496910048066
0.7074845502403296
1.1781338216220338
1.6084992751964597
2.011337453269246
2.2684824902723735
2.447745479514763
2.5504692149233232
2.3866483558403906
2.0512855725947965
1.6887312123292892
1.183504997329671
0.8058442053864348
0.5602807660028991
0.050019073777370866
-0.6165102616922256
-1.2006256198977645
-1.6526436255436028
-1.8878004119935914
-2.097611963073167
-2.412832837415122
-2.6343938353551537
-2.6582284275577934
-2.50447852292668
-2.2943312733653776
-2.074784466315709
-1.7748378728923475
-1.4094300755321583
-0.9898069733730067
-0.48189517051956965
0.16029602502479592
0.7799954222934309
1.4215152208743418
2.0583352407110707
2.457145037003128
2.6746776531624326
2.8143282215609977
2.7136186770428012
2.6706492713817043
2.7552452887769894
2.5612115663385975
2.153337911039902
1.756206607156481
1.415640497444114
1.1502708476386663
0.7262836652170594
0.011749446860456245
-0.7487754634927901
-1.3913023575188828
-1.9029068436713208
-2.3725490196078436
-2.8099641412985426
-3.074158846417945
-3.158083466849775
-3.107560845349813
-2.914030670634012
-2.5521477073319603
-2.1521629663538566
-1.6645609216449224
-1.1220721751735714
-0.7252765697718776
-0.3778286411841001
0.050522621499961846
0.40401312275883117
0.9414663920042726
1.6561684596017394
2.1288319218738074
2.3846341649500262
2.6001525902189666
2.7911650263218126
2.991577019913023
2.9766384374761574
2.634058136873426
2.2006713969634544
1.8025329976348514
1.428397039749752
0.965972381170367
0.3623865110246433
-0.30363927672236213
-0.9602655069810025
-1.5646906233310445
-2.079148546578164
-2.4383459220263983
-2.712275883115892
-2.8086213473716333
-2.764309147783627
-2.783443961242084
-2.761623559929808
-2.5964599069199665
-2.4685587853818567
-2.09224078736553
-1.4386358434424351
-0.9418020904859997
-0.5349355306324863
-0.014938582436865796
0.6322880903334095
1.4057373922331577
2.060349431601434
2.4296177615014876
2.6823987182421605
2.9049668116273746
3.069459067673762
3.054016937514305
2.836484321355001
2.544426642252231
2.21007095445182
1.8310673685816736
1.43930724040589
1.06332494087129
0.5805905241474021
0.0703288319218738
-0.45940337224383915
-1.1704127565423057
-1.9165026321812773
-2.526970321202411
-3.112428473334859
-3.3539635309376665
-3.2188448920424197
-3.14868390936141
-3.0986648355840387
-2.871564812695506
-2.457312886243992
-1.8361028458075834
-1.260715648126955
-0.8934615091172654
-0.4993514915693904
0.03675898374914168
0.6732433051041428
1.2524910353246357
1.7176012817578392
2.1617303730830852
2.554497596704051
2.828427557793545
2.9902342259861143
3.106721599145495
3.070801861600671
2.9559929808499277
2.750545510032807
2.2708323796444647
1.6481116960402837
1.026733806363012
0.2519417105363546
-0.36305790798809795
-0.7690852216372929
-1.357732509346151
-2.0311436636911573
-2.568261234454871
-2.8885175860227363
-2.906309605554284
-2.8604867627985047
-2.9230945296406503
-2.893888761730373
-2.6642710002288847
-2.28392462043183
-1.8874647135118638
-1.5244068055237658
-1.0948805981536582
-0.585626001373312
-0.016617074845502403
0.5993896391241321
1.2654154268711373
1.8696726939803159
2.4746013580529485
3.007690547035935
3.206424048218509
3.1661402304112305
3.041260395208667
2.706904707408255
2.479972533760586
2.3792629892423895
2.0073090714885176
1.456092164492256
0.9199816891737239
0.4265049210345616
0.02668802929732204
-0.4852521553368428
-1.2167391470206759
-1.925902189669642
-2.4588235294117644
-2.792507820248722
-3.0243076218814373
-3.1983672846570537
-3.2121309224078733
-3.0711375600823985
-2.811978332188907
-2.435492484931716
-1.9270771343556878
-1.4188296330205232
-0.8280003051804379
-0.1837949187457084
0.28114747844663157
0.6766002899214161
1.1210650797283894
1.4379644464789807
1.9171740291447317
2.539726863508049
2.8337987335011823
2.844541084916457
2.7955291065842682
2.7391317616540776
2.7304036011291677
2.539726863508049
2.054306858930343
1.5010757610437169
0.9874570840009154
0.48189517051956965
-0.12941176470588234
-0.8370641641870756
-1.4842908369573509
-2.039200427252613
-2.508674753948272
-2.83598077363241
-2.9502861066605632
-2.959349965667201
-2.795864805065995
-2.5080033569848172
-2.324544136720836
-2.14729533836881
-1.8619516289005873
-1.6353551537346456
-1.1670557717250323
-0.44547188525215525
0.11229114213778896
0.5577630273899443
1.0646677347981994
1.6575112535286487
2.349721522850385
2.85662623025864
2.9956054016937514
2.98822003509575
2.9533073929961087
2.8713969634546426
2.643121995880064
2.2456549935149153
1.8058899824521246
1.3580682078278783
0.8914473182269017
0.40468451972228575
-0.06680399786373693
-0.6218814373998627
-1.1291218432898449
-1.5792935072861827
-2.1570305943389028
-2.7015335317006177
-3.053681239032578
-3.365209430075532
-3.3489280537117567
-2.974792095826657
-2.6963302052338447
-2.46688029297322
-2.097611963073167
-0.9193102922102692
2.6790417334248873
5.2327000839246205
5.477759975585565
5.479774166475929
5.479774166475929
5.479774166475929
5.479774166475929
5.479774166475929
5.480445563439384
5.480445563439384
5.480445563439384
5.480445563439384
5.480445563439384
5.481116960402838
5.481116960402838
5.48078126192111
5.42572671091783
4.8372472724498365
3.6824444953078506
2.7290608072022584
1.372503242542153
0.5728694590676737
0.10171663996337835
-0.799801632715343
-1.886793316548409
-2.8123140306706342
-3.499153124284733
-3.691172655832761
-4.047684443427176
-4.747615777828641
-5.319142442969405
-5.491187914854658
-5.493537804226749
-5.49404135194934
-5.494377050431067
-5.49454489967193
-5.49454489967193
-5.49454489967193
-5.494880598153658
-5.494712748912795
-5.494712748912795
-5.494712748912795
-5.494880598153658
-5.494880598153658
-5.494712748912795
-5.494712748912795
-5.494712748912795
-5.494712748912795
-5.494880598153658
-5.073243305104143
-4.175921263447012
-3.2181734950789647
-2.351567864499886
-1.6907454032196538
-0.2848401617456321
1.4272220950637065
2.3127946898603797
2.6223086900129697
2.9264515144579235
3.2963912413214307
3.5904631113145653
3.7992675669489584
3.977859159227893
4.069840543221179
3.9933012893873503
3.9409323262378875
4.032913710231174
4.159136339360646
4.080918593118181
3.6936903944457162
3.444769970244907
3.503181506065461
3.633432516975662
3.752941176470588
3.8882276646066987
4.047684443427176
4.225604638742656
4.338063630121309
4.374654764629588
4.378011749446861
4.375326161593041
4.38673990997177
4.465964751659418
4.539482719157702
4.5210193026627
4.492149233234149
4.448508430609598
4.357198443579766
4.290058747234302
4.248096437018387
4.122880903334097
3.9053482871747915
3.6764019226367584
3.4555123216601813
3.229251544975967
2.982177462424658
2.7377889677271683
2.525627527275502
2.3658350499732967
2.2439765011062787
2.1154039826047146
1.9656824597543294
1.8139467460135805
1.6702677958342866
1.5346456092164493
1.397680628671702
1.2634012359807736
1.141039139391165
1.036133363851377
0.9277027542534523
0.7917448691538871
0.6779430838483252
0.5967040512703136
0.5037155718318455
0.4093842984664683
0.5602807660028991
0.8672770275425344
0.9730220492866406
0.871976806286717
0.7860379949645229
0.7961089494163425
0.7652246890974289
0.7007705806057831
0.6188601510643167
0.5011978332188906
0.37917143511100937
0.26066987106126494
0.11665522240024415
-0.03910887312123293
-0.1777523460746166
-0.2996108949416343
-0.4110627908751049
-0.48357366292820625
-0.5144579232471199
-0.575219348439765
-0.700267032883192
-0.850156404974441
-1.0072632944228275
-1.188876173037308
-1.3983520256351567
-1.651468680857557
-1.854230563820859
-1.9519188220035095
-1.9883421072709235
-2.009994659342336
-2.03399710078584
-2.043228809033341
-2.041214618142977
-2.0123445487144274
-1.9515831235217822
-1.8918287937743188
-1.8411383230334932
-1.7867551689936674
-1.7338826581216145
-1.704844739452201
-1.8136110475318532
-1.9700465400167848
-2.006469825284199
-1.9163347829404134
-1.7645990691996647
-1.5833218890669107
-1.4010376134889753
-1.2456092164492254
-1.1281147478446631
-1.3785458152132446
-2.056656748302434
-2.4608377203021283
-2.3154802777141983
-1.9112993057145038
-1.5141680018310826
-1.2180819409475852
