EMG Sensor 0
0.0
0.0
0.0
0.0
0.0
0.0
0.0
0.0
0.0
0.0
0.0
0.0
0.0
0.0
0.0
0.0
0.0
0.0
0.0
0.0
0.0
0.0
0.0
0.0
0.0
0.0
0.0
0.0
0.0
0.0
0.0
0.0
0.0
0.0
0.0
0.0
0.0
0.0
0.0
0.0
0.0
0.0
0.0
0.0
0.0
0.0
0.0
0.0
0.0
0.0
0.0
0.0
0.0
0.0
0.0
0.0
0.0
0.0
0.0
0.0
0.0
0.0
0.0
0.0
0.0
0.0
0.0
0.0
0.0
0.0
0.0
0.0
0.0
0.0
0.0
0.0
0.0
0.0
0.0
0.0
0.0
0.0
0.0
0.0
0.0
0.0
0.0
0.0
0.0
0.0
0.0
0.0
0.0
0.0
0.0
0.0
0.0
0.0
0.0
0.0
0.0
0.0
0.0
0.0
0.0
0.0
0.0
0.0
0.0
0.0
0.0
0.0
0.0
0.0
0.0
0.0
0.0
0.0
0.0
0.0
0.0
0.0
0.0
0.0
0.0
0.0
0.0
0.0
0.0
0.0
0.0
0.0
0.0
0.0
0.0
0.0
0.0
0.0
0.0
0.0
0.0
0.0
0.0
0.0
0.0
0.0
0.0
0.0
0.0
0.0
0.0
0.0
0.0
0.0
0.0
0.0
0.0
0.0
0.0
0.0
0.0
0.0
0.0
0.0
0.0
0.0
0.0
0.0
0.0
0.0
0.0
0.0
0.0
0.0
0.0
0.0
0.0
0.0
0.0
0.0
0.0
0.0
0.0
0.0
0.0
0.0
0.0
0.0
0.0
0.0
0.0
0.0
0.0
0.0
0.0
0.0
0.0
0.0
0.0
0.0
0.0
0.0
0.0
0.0
0.0
0.0
0.0
0.0
0.0
0.0
0.0
0.0
0.0
0.0
0.0
0.0
0.0
0.0
0.0
0.0
0.0
0.0
0.0
0.0
0.0
0.0
0.0
0.0
0.0
0.0
0.0
0.0
0.0
0.0
0.0
0.0
0.0
0.0
0.0
0.0
0.0
0.0
0.0
0.0
0.0
0.0
0.0
0.0
0.0
0.0
0.0
0.0
0.0
0.0
0.0
0.0
0.0
0.0
0.0
0.0
0.0
0.0
0.0
0.0
0.0
0.0
0.0
0.0
0.0
0.0
0.0
0.0
0.0
0.0
0.0
0.0
0.0
0.0
0.0
0.0
0.0
0.0
0.0
0.0
0.0
0.0
0.0
0.0
0.0
0.0
0.0
0.0
0.0
0.0
0.0
0.0
0.0
0.0
0.0
0.0
0.0
0.0
0.0
0.0
0.0
0.0
0.0
0.0
0.0
0.0
0.0
0.0
0.0
0.0
0.0
0.0
0.0
0.0
0.0
0.0
0.0
0.0
0.0
0.0
0.0
0.0
0.0
0.0
0.0
0.0
0.0
0.0
0.0
0.0
0.0
0.0
0.0
0.0
0.0
0.0
0.0
0.0
0.0
0.0
0.0
0.0
0.0
0.0
0.0
0.0
0.0
0.0
0.0
0.0
0.0
0.0
0.0
0.0
0.0
0.0
0.0
0.0
0.0
0.0
0.0
0.0
0.0
0.0
0.0
0.0
0.0
0.0
0.0
0.0
0.0
0.0
0.0
0.0
0.0
0.0
0.0
0.0
0.0
0.0
0.0
0.0
0.0
0.0
0.0
0.0
0.0
0.0
0.0
0.0
0.0
0.0
0.0
0.0
0.0
0.0
0.0
0.0
0.0
0.0
0.0
0.0
0.0
0.0
0.0
0.0
0.0
0.0
0.0
0.0
0.0
0.0
0.0
0.0
0.0
0.0
0.0
0.0
0.0
0.0
0.0
0.0
0.0
0.0
0.0
0.0
0.0
0.0
0.0
0.0
0.0
0.0
0.0
0.0
0.0
0.0
0.0
0.0
0.0
0.0
0.0
0.0
0.0
0.0
0.0
0.0
0.0
0.0
0.0
0.0
0.0
0.0
0.0
0.0
0.0
0.0
0.0
0.0
0.0
0.0
0.0
0.0
0.0
0.0
0.0
0.0
0.0
0.0
0.0
0.0
0.0
0.0
0.0
0.0
0.0
0.0
0.0
0.0
0.0
0.0
0.0
0.0
0.0
0.0
0.0
0.0
0.0
0.0
0.0
0.0
0.0
0.0
0.0
0.0
0.0
0.0
0.0
0.0
0.0
0.0
0.0
0.0
0.0
0.0
0.0
0.0
0.0
0.0
0.0
0.0
0.0
0.0
0.0
0.0
0.0
0.0
0.0
0.0
0.0
0.0
0.0
0.0
0.0
0.0
0.0
0.0
0.0
0.0
0.0
0.0
0.0
0.0
0.0
0.0
0.0
0.0
0.0
0.0
0.0
0.0
0.0
0.0
0.0
0.0
0.0
0.0
0.0
0.0
0.0
0.0
0.0
0.0
0.0
0.0
0.0
0.0
0.0
0.0
0.0
0.0
0.0
0.0
0.0
0.0
0.0
0.0
0.0
0.0
0.0
0.0
0.0
0.0
0.0
0.0
0.0
0.0
0.0
0.0
0.0
0.0
0.0
0.0
0.0
0.0
0.0
0.0
0.0
0.0
0.0
0.0
0.0
0.0
0.0
0.0
0.0
0.0
0.0
0.0
0.0
0.0
0.0
0.0
0.0
0.0
0.0
0.0
0.0
0.0
0.0
0.0
0.0
0.0
0.0
0.0
0.0
0.0
0.0
0.0
0.0
0.0
0.0
0.0
0.0
0.0
0.0
0.0
0.0
0.0
0.0
0.0
0.0
0.0
0.0
0.0
0.0
0.0
0.0
0.0
0.0
0.0
0.0
0.0
0.0
0.0
0.0
0.0
0.0
0.0
0.0
0.0
0.0
0.0
0.0
0.0
0.0
0.0
0.0
0.0
0.0
0.0
0.0
0.0
0.0
0.0
0.0
0.0
0.0
0.0
0.0
0.0
0.0
0.0
0.0
0.0
0.0
0.0
0.0
0.0
0.0
0.0
0.0
0.0
0.0
0.0
0.0
0.0
0.0
0.0
0.0
0.0
0.0
0.0
0.0
0.0
0.0
0.0
0.0
0.0
0.0
0.0
0.0
0.0
0.0
0.0
0.0
0.0
0.0
0.0
0.0
0.0
0.0
0.0
0.0
0.0
0.0
0.0
0.0
0.0
0.0
0.0
0.0
0.0
0.0
0.0
0.0
0.0
0.0
0.0
0.0
0.0
0.0
0.0
0.0
0.0
0.0
0.0
0.0
0.0
0.0
0.0
0.0
0.0
0.0
0.0
0.0
0.0
0.0
0.0
0.0
0.0
-0.006378271152819104
-0.004531929503318838
-0.004196231021591517
-0.004196231021591517
-0.004196231021591517
-0.004196231021591517
-0.003692683299000534
-0.003860532539864194
-0.004196231021591517
-0.003860532539864194
-0.0035248340581368735
-0.004196231021591517
-0.004531929503318838
-0.004531929503318838
-0.004196231021591517
-0.004196231021591517
-0.004196231021591517
-0.004196231021591517
-0.004867627985046159
-0.004867627985046159
-0.004867627985046159
-0.004531929503318838
-0.004196231021591517
-0.004196231021591517
-0.004196231021591517
-0.004867627985046159
-0.004867627985046159
-0.004867627985046159
-0.004531929503318838
-0.004699778744182497
-0.004364080262455177
-0.004364080262455177
-0.004364080262455177
-0.004196231021591517
-0.004364080262455177
-0.004196231021591517
-0.004531929503318838
-0.004867627985046159
-0.004867627985046159
-0.004531929503318838
-0.004531929503318838
-0.004196231021591517
-0.004196231021591517
-0.004196231021591517
-0.004196231021591517
-0.004531929503318838
-0.004867627985046159
-0.004531929503318838
-0.004867627985046159
-0.004867627985046159
-0.004867627985046159
-0.004867627985046159
-0.004867627985046159
-0.0052033264667734795
-0.004531929503318838
-0.004867627985046159
-0.004867627985046159
-0.004867627985046159
-0.004867627985046159
-0.004531929503318838
-0.004531929503318838
-0.004531929503318838
-0.004867627985046159
-0.004867627985046159
-0.004867627985046159
-0.004867627985046159
-0.004531929503318838
-0.004196231021591517
-0.0035248340581368735
-0.0035248340581368735
-0.0035248340581368735
-0.003692683299000534
-0.003692683299000534
-0.0035248340581368735
-0.003692683299000534
-0.004196231021591517
-0.004196231021591517
-0.004364080262455177
-0.004867627985046159
-0.004867627985046159
-0.004867627985046159
-0.004867627985046159
-0.004867627985046159
-0.004364080262455177
-0.004196231021591517
-0.004196231021591517
-0.004196231021591517
-0.004196231021591517
-0.004196231021591517
-0.004531929503318838
-0.004867627985046159
-0.004531929503318838
-0.004196231021591517
-0.004364080262455177
-0.004364080262455177
-0.004196231021591517
-0.004196231021591517
-0.004196231021591517
-0.004531929503318838
-0.004531929503318838
-0.003860532539864194
-0.003860532539864194
-0.003692683299000534
-0.004196231021591517
-0.004196231021591517
-0.003860532539864194
-0.0035248340581368735
-0.0035248340581368735
-0.003860532539864194
-0.0035248340581368735
-0.003860532539864194
-0.004196231021591517
-0.004196231021591517
-0.004196231021591517
-0.004196231021591517
-0.003860532539864194
-0.004196231021591517
-0.004196231021591517
-0.004196231021591517
-0.004196231021591517
-0.004364080262455177
-0.004531929503318838
-0.004531929503318838
-0.004196231021591517
-0.004196231021591517
-0.004196231021591517
-0.004196231021591517
-0.004196231021591517
-0.004196231021591517
-0.003860532539864194
-0.004196231021591517
-0.004196231021591517
-0.003860532539864194
-0.003860532539864194
-0.003860532539864194
-0.003860532539864194
-0.004196231021591517
-0.004196231021591517
-0.0035248340581368735
-0.0035248340581368735
-0.003189135576409552
-0.003189135576409552
-0.0035248340581368735
-0.0035248340581368735
-0.003860532539864194
-0.004196231021591517
-0.004196231021591517
-0.004196231021591517
-0.004196231021591517
-0.004196231021591517
-0.004531929503318838
-0.004867627985046159
-0.004699778744182497
-0.004531929503318838
-0.004867627985046159
-0.004867627985046159
-0.004531929503318838
-0.004531929503318838
-0.004531929503318838
-0.004867627985046159
-0.004867627985046159
-0.004867627985046159
-0.004531929503318838
-0.004196231021591517
-0.003860532539864194
-0.003860532539864194
-0.004196231021591517
-0.004196231021591517
-0.004531929503318838
-0.004196231021591517
-0.003860532539864194
-0.004196231021591517
-0.003860532539864194
-0.004196231021591517
-0.003860532539864194
-0.003860532539864194
-0.004196231021591517
-0.004531929503318838
-0.004531929503318838
-0.004196231021591517
-0.004196231021591517
-0.004196231021591517
-0.004196231021591517
-0.004699778744182497
-0.004196231021591517
-0.004196231021591517
-0.004867627985046159
-0.0052033264667734795
-0.004867627985046159
-0.004196231021591517
-0.004196231021591517
-0.004196231021591517
-0.004196231021591517
-0.004196231021591517
-0.004196231021591517
-0.0035248340581368735
-0.003189135576409552
-0.003860532539864194
-0.003860532539864194
-0.003692683299000534
-0.0035248340581368735
-0.0035248340581368735
-0.003860532539864194
-0.0035248340581368735
-0.003189135576409552
-0.003189135576409552
-0.0035248340581368735
-0.0035248340581368735
-0.0035248340581368735
-0.004196231021591517
-0.0035248340581368735
-0.003860532539864194
-0.004364080262455177
-0.004364080262455177
-0.004196231021591517
-0.004196231021591517
-0.004196231021591517
-0.003860532539864194
-0.003692683299000534
-0.004196231021591517
-0.004196231021591517
-0.004196231021591517
-0.004196231021591517
-0.003860532539864194
-0.003692683299000534
-0.004196231021591517
-0.003860532539864194
-0.003860532539864194
-0.0035248340581368735
-0.0035248340581368735
-0.0035248340581368735
-0.0035248340581368735
-0.0035248340581368735
-0.003189135576409552
-0.0035248340581368735
-0.0035248340581368735
-0.0035248340581368735
-0.0035248340581368735
-0.003860532539864194
-0.003692683299000534
-0.004196231021591517
-0.003860532539864194
-0.003692683299000534
-0.004196231021591517
-0.004196231021591517
-0.004364080262455177
-0.004867627985046159
-0.004531929503318838
-0.004364080262455177
-0.004531929503318838
-0.004867627985046159
-0.004867627985046159
-0.004867627985046159
-0.004867627985046159
-0.0052033264667734795
-0.0052033264667734795
-0.004867627985046159
-0.004364080262455177
-0.004196231021591517
-0.004196231021591517
-0.003860532539864194
-0.003692683299000534
-0.0035248340581368735
-0.003189135576409552
-0.003189135576409552
-0.003189135576409552
-0.0035248340581368735
-0.0035248340581368735
-0.003356984817273213
-0.0035248340581368735
-0.003860532539864194
-0.004364080262455177
-0.004196231021591517
-0.004196231021591517
-0.003860532539864194
-0.004196231021591517
-0.004196231021591517
-0.004196231021591517
-0.004196231021591517
-0.004196231021591517
-0.004196231021591517
-0.004196231021591517
-0.004196231021591517
-0.003860532539864194
-0.003692683299000534
-0.003189135576409552
-0.0035248340581368735
-0.0035248340581368735
-0.0035248340581368735
-0.003356984817273213
-0.003692683299000534
-0.0035248340581368735
-0.0028534370946822307
-0.0035248340581368735
-0.004196231021591517
-0.003860532539864194
-0.003860532539864194
-0.0035248340581368735
-0.004196231021591517
-0.003860532539864194
-0.003860532539864194
-0.004196231021591517
-0.004196231021591517
-0.004196231021591517
-0.004196231021591517
-0.004531929503318838
-0.004867627985046159
-0.004867627985046159
-0.0050354772259098195
-0.004867627985046159
-0.004867627985046159
-0.004531929503318838
-0.0050354772259098195
-0.0052033264667734795
-0.0055390249485008005
-0.004867627985046159
-0.004867627985046159
-0.004531929503318838
-0.004364080262455177
-0.004196231021591517
-0.004196231021591517
-0.004196231021591517
-0.003860532539864194
-0.0035248340581368735
-0.0035248340581368735
-0.003189135576409552
-0.003189135576409552
-0.0030212863355458916
-0.0028534370946822307
-0.0028534370946822307
-0.0025177386129549098
-0.0028534370946822307
-0.003189135576409552
-0.0028534370946822307
-0.0028534370946822307
-0.0035248340581368735
-0.0035248340581368735
-0.0035248340581368735
-0.003860532539864194
-0.003860532539864194
-0.004196231021591517
-0.004196231021591517
-0.004196231021591517
-0.004196231021591517
-0.004196231021591517
-0.004196231021591517
-0.004196231021591517
-0.003860532539864194
-0.0035248340581368735
-0.0035248340581368735
-0.003860532539864194
-0.004196231021591517
-0.004196231021591517
-0.003860532539864194
-0.003860532539864194
-0.0035248340581368735
-0.0035248340581368735
-0.003356984817273213
-0.0028534370946822307
-0.003189135576409552
-0.0035248340581368735
-0.0035248340581368735
-0.0035248340581368735
-0.003189135576409552
-0.003189135576409552
-0.0035248340581368735
-0.004196231021591517
-0.004196231021591517
-0.004196231021591517
-0.004364080262455177
-0.004531929503318838
-0.004364080262455177
-0.004196231021591517
-0.004531929503318838
-0.004364080262455177
-0.004867627985046159
-0.004867627985046159
-0.004867627985046159
-0.004867627985046159
-0.004867627985046159
-0.004867627985046159
-0.004531929503318838
-0.004867627985046159
-0.004867627985046159
-0.004196231021591517
-0.004196231021591517
-0.004196231021591517
-0.004196231021591517
-0.004196231021591517
-0.004196231021591517
-0.004196231021591517
-0.004196231021591517
-0.0035248340581368735
-0.003189135576409552
-0.003189135576409552
-0.003189135576409552
-0.0035248340581368735
-0.0035248340581368735
-0.0035248340581368735
-0.0035248340581368735
-0.003860532539864194
-0.004196231021591517
-0.003860532539864194
-0.003860532539864194
-0.004196231021591517
-0.004531929503318838
-0.004196231021591517
-0.004196231021591517
-0.004196231021591517
-0.004531929503318838
-0.004531929503318838
-0.004531929503318838
-0.004867627985046159
-0.0052033264667734795
-0.004867627985046159
-0.004867627985046159
-0.004364080262455177
-0.004196231021591517
-0.004196231021591517
-0.004531929503318838
-0.004196231021591517
-0.004364080262455177
-0.004196231021591517
-0.004196231021591517
-0.003860532539864194
-0.003692683299000534
-0.003860532539864194
-0.004196231021591517
-0.003860532539864194
-0.0035248340581368735
-0.0035248340581368735
-0.003692683299000534
-0.003692683299000534
-0.004196231021591517
-0.004196231021591517
-0.004196231021591517
-0.004196231021591517
-0.004867627985046159
-0.0050354772259098195
-0.0050354772259098195
-0.0052033264667734795
-0.004867627985046159
-0.004867627985046159
-0.004531929503318838
-0.004531929503318838
-0.004867627985046159
-0.004867627985046159
-0.004531929503318838
-0.004196231021591517
-0.004196231021591517
-0.004196231021591517
-0.004531929503318838
-0.004196231021591517
-0.0035248340581368735
-0.0035248340581368735
-0.0035248340581368735
-0.003189135576409552
-0.003189135576409552
-0.0028534370946822307
-0.0028534370946822307
-0.0028534370946822307
-0.0028534370946822307
-0.0028534370946822307
-0.0028534370946822307
-0.003189135576409552
-0.0035248340581368735
-0.003860532539864194
-0.003692683299000534
-0.0035248340581368735
-0.004196231021591517
-0.003692683299000534
-0.004196231021591517
-0.003860532539864194
-0.003860532539864194
-0.004196231021591517
-0.004531929503318838
-0.004196231021591517
-0.004196231021591517
-0.003860532539864194
-0.004196231021591517
-0.0035248340581368735
-0.0035248340581368735
-0.003189135576409552
-0.0030212863355458916
-0.0028534370946822307
-0.0028534370946822307
-0.0028534370946822307
-0.0028534370946822307
-0.003356984817273213
-0.0035248340581368735
-0.003189135576409552
-0.0035248340581368735
-0.003189135576409552
-0.003189135576409552
-0.0035248340581368735
-0.003692683299000534
-0.003860532539864194
-0.004196231021591517
-0.004196231021591517
-0.004196231021591517
-0.004531929503318838
-0.004867627985046159
-0.004531929503318838
-0.004196231021591517
-0.004364080262455177
-0.004196231021591517
-0.004196231021591517
-0.004196231021591517
-0.004196231021591517
-0.004531929503318838
-0.004531929503318838
-0.004364080262455177
-0.004196231021591517
-0.003860532539864194
-0.003860532539864194
-0.0035248340581368735
-0.0035248340581368735
-0.0035248340581368735
-0.0035248340581368735
-0.0035248340581368735
-0.003189135576409552
-0.0028534370946822307
-0.0028534370946822307
-0.0028534370946822307
-0.0028534370946822307
-0.0028534370946822307
-0.0028534370946822307
-0.0030212863355458916
-0.0035248340581368735
-0.003692683299000534
-0.004196231021591517
-0.004531929503318838
-0.004867627985046159
-0.004531929503318838
-0.004364080262455177
-0.004531929503318838
-0.004867627985046159
-0.004699778744182497
-0.004867627985046159
-0.0055390249485008005
-0.004867627985046159
-0.004364080262455177
-0.004531929503318838
-0.004867627985046159
-0.004196231021591517
-0.004196231021591517
-0.004196231021591517
-0.004196231021591517
-0.004196231021591517
-0.004196231021591517
-0.003860532539864194
-0.003189135576409552
-0.0028534370946822307
-0.0028534370946822307
-0.0035248340581368735
-0.0035248340581368735
-0.0035248340581368735
-0.003692683299000534
-0.004196231021591517
-0.0035248340581368735
-0.003860532539864194
-0.004196231021591517
-0.004196231021591517
-0.004196231021591517
-0.004196231021591517
-0.004196231021591517
-0.004196231021591517
-0.004867627985046159
-0.004867627985046159
-0.004531929503318838
-0.004196231021591517
-0.004867627985046159
-0.004867627985046159
-0.004867627985046159
-0.004867627985046159
-0.004867627985046159
-0.004196231021591517
-0.004196231021591517
-0.004196231021591517
-0.004196231021591517
-0.003860532539864194
-0.003692683299000534
-0.0035248340581368735
-0.0035248340581368735
-0.003189135576409552
-0.0035248340581368735
-0.0035248340581368735
-0.003189135576409552
-0.0028534370946822307
-0.003189135576409552
-0.003189135576409552
-0.0028534370946822307
-0.003189135576409552
-0.0035248340581368735
-0.003860532539864194
-0.004196231021591517
-0.004196231021591517
-0.004196231021591517
-0.004196231021591517
-0.004196231021591517
-0.004196231021591517
-0.004531929503318838
-0.004531929503318838
-0.004364080262455177
-0.004364080262455177
-0.004196231021591517
-0.004196231021591517
-0.004196231021591517
-0.004196231021591517
-0.003860532539864194
-0.0035248340581368735
-0.0035248340581368735
-0.0030212863355458916
-0.0028534370946822307
-0.0028534370946822307
-0.0028534370946822307
-0.0028534370946822307
-0.0028534370946822307
-0.0028534370946822307
-0.0028534370946822307
-0.0025177386129549098
-0.0028534370946822307
-0.0030212863355458916
-0.003189135576409552
-0.003189135576409552
-0.003189135576409552
-0.0030212863355458916
-0.003189135576409552
-0.0035248340581368735
-0.003860532539864194
-0.004196231021591517
-0.004196231021591517
-0.004196231021591517
-0.004531929503318838
-0.004867627985046159
-0.004867627985046159
-0.004531929503318838
-0.004867627985046159
-0.004867627985046159
-0.004531929503318838
-0.004531929503318838
-0.004196231021591517
-0.004531929503318838
-0.004196231021591517
-0.0035248340581368735
-0.0035248340581368735
-0.003189135576409552
-0.0030212863355458916
-0.0028534370946822307
-0.0028534370946822307
-0.0028534370946822307
-0.003189135576409552
-0.0028534370946822307
-0.0028534370946822307
-0.0028534370946822307
-0.003189135576409552
-0.0035248340581368735
-0.004196231021591517
-0.004196231021591517
-0.004196231021591517
-0.004364080262455177
-0.004531929503318838
-0.004867627985046159
-0.004699778744182497
-0.004867627985046159
-0.004867627985046159
-0.0052033264667734795
-0.0052033264667734795
-0.004867627985046159
-0.004867627985046159
-0.004867627985046159
-0.0055390249485008005
-0.0055390249485008005
-0.0052033264667734795
-0.004531929503318838
-0.004196231021591517
-0.003692683299000534
-0.004196231021591517
-0.0035248340581368735
-0.003189135576409552
-0.0030212863355458916
-0.003189135576409552
-0.003189135576409552
-0.0035248340581368735
-0.0035248340581368735
-0.0035248340581368735
-0.0035248340581368735
-0.0035248340581368735
-0.003860532539864194
-0.003692683299000534
-0.003860532539864194
-0.004196231021591517
-0.004867627985046159
-0.004531929503318838
-0.004867627985046159
-0.0055390249485008005
-0.0055390249485008005
-0.0055390249485008005
-0.0055390249485008005
-0.0055390249485008005
-0.0055390249485008005
-0.0055390249485008005
-0.0055390249485008005
-0.0055390249485008005
-0.004867627985046159
-0.004531929503318838
-0.004364080262455177
-0.004196231021591517
-0.0035248340581368735
-0.0035248340581368735
-0.0035248340581368735
-0.003356984817273213
-0.003189135576409552
-0.0028534370946822307
-0.003189135576409552
-0.0028534370946822307
-0.0021820401312275884
-0.0025177386129549098
-0.0028534370946822307
-0.0030212863355458916
-0.003189135576409552
-0.0035248340581368735
-0.004196231021591517
-0.004196231021591517
-0.004196231021591517
-0.004531929503318838
-0.004531929503318838
-0.004531929503318838
-0.004867627985046159
-0.004867627985046159
-0.004196231021591517
-0.004531929503318838
-0.004196231021591517
-0.004531929503318838
-0.004196231021591517
-0.003860532539864194
-0.0035248340581368735
-0.0028534370946822307
-0.0028534370946822307
-0.003189135576409552
-0.0035248340581368735
-0.003189135576409552
-0.0028534370946822307
-0.0028534370946822307
-0.0023498893720912484
-0.0021820401312275884
-0.0021820401312275884
-0.0028534370946822307
-0.0028534370946822307
-0.0028534370946822307
-0.0028534370946822307
-0.0035248340581368735
-0.0035248340581368735
-0.003860532539864194
-0.0035248340581368735
-0.0035248340581368735
-0.003692683299000534
-0.004531929503318838
-0.004531929503318838
-0.004364080262455177
-0.004531929503318838
-0.004531929503318838
-0.004531929503318838
-0.004531929503318838
-0.0050354772259098195
-0.0052033264667734795
-0.0052033264667734795
-0.004867627985046159
-0.004867627985046159
-0.004867627985046159
-0.004867627985046159
-0.004364080262455177
-0.004196231021591517
-0.0035248340581368735
-0.0028534370946822307
-0.0028534370946822307
-0.0028534370946822307
-0.0025177386129549098
-0.003189135576409552
-0.0035248340581368735
-0.0035248340581368735
-0.0035248340581368735
-0.0030212863355458916
-0.0035248340581368735
-0.004196231021591517
-0.004196231021591517
-0.004196231021591517
-0.004531929503318838
-0.004867627985046159
-0.0052033264667734795
-0.0052033264667734795
-0.004867627985046159
-0.004867627985046159
-0.004867627985046159
-0.0052033264667734795
-0.0055390249485008005
-0.0055390249485008005
-0.004867627985046159
-0.004867627985046159
-0.004531929503318838
-0.004196231021591517
-0.003860532539864194
-0.003692683299000534
-0.0035248340581368735
-0.0035248340581368735
-0.0028534370946822307
-0.0028534370946822307
-0.0025177386129549098
-0.0021820401312275884
-0.0021820401312275884
-0.0028534370946822307
-0.0030212863355458916
-0.0025177386129549098
-0.0028534370946822307
-0.0028534370946822307
-0.0035248340581368735
-0.0035248340581368735
-0.0035248340581368735
-0.003692683299000534
-0.0035248340581368735
-0.003860532539864194
-0.004196231021591517
-0.004196231021591517
-0.004196231021591517
-0.004531929503318838
-0.004531929503318838
-0.004364080262455177
-0.004364080262455177
-0.004867627985046159
-0.004699778744182497
-0.004531929503318838
-0.004531929503318838
-0.004531929503318838
-0.004196231021591517
-0.0035248340581368735
-0.003692683299000534
-0.0035248340581368735
-0.003189135576409552
-0.0030212863355458916
-0.0035248340581368735
-0.0030212863355458916
-0.0028534370946822307
-0.0023498893720912484
-0.0028534370946822307
-0.0028534370946822307
-0.0028534370946822307
-0.0028534370946822307
-0.0035248340581368735
-0.0035248340581368735
-0.0035248340581368735
-0.0035248340581368735
-0.003692683299000534
-0.004196231021591517
-0.004867627985046159
-0.0052033264667734795
-0.0055390249485008005
-0.005874723430228122
-0.0055390249485008005
-0.0055390249485008005
-0.006210421911955443
-0.005874723430228122
-0.0055390249485008005
-0.0052033264667734795
-0.0055390249485008005
-0.0052033264667734795
-0.004867627985046159
-0.004867627985046159
-0.004867627985046159
-0.004364080262455177
-0.004196231021591517
-0.0035248340581368735
-0.0028534370946822307
-0.0028534370946822307
-0.0028534370946822307
-0.0028534370946822307
-0.0028534370946822307
-0.0025177386129549098
-0.0025177386129549098
-0.0021820401312275884
-0.0021820401312275884
-0.0028534370946822307
-0.003189135576409552
-0.0035248340581368735
-0.0035248340581368735
-0.0035248340581368735
-0.0035248340581368735
-0.004196231021591517
-0.004196231021591517
-0.003860532539864194
-0.004196231021591517
-0.004196231021591517
-0.004196231021591517
-0.004196231021591517
-0.004196231021591517
-0.004531929503318838
-0.004531929503318838
-0.004531929503318838
-0.0035248340581368735
-0.0035248340581368735
-0.0035248340581368735
-0.003189135576409552
-0.003189135576409552
-0.0028534370946822307
-0.0028534370946822307
-0.0028534370946822307
-0.0028534370946822307
-0.0035248340581368735
-0.003189135576409552
-0.003189135576409552
-0.003860532539864194
-0.004196231021591517
-0.003692683299000534
-0.0035248340581368735
-0.004196231021591517
-0.004196231021591517
-0.004531929503318838
-0.004196231021591517
-0.004196231021591517
-0.004196231021591517
-0.004867627985046159
-0.004531929503318838
-0.004867627985046159
-0.0050354772259098195
-0.0052033264667734795
-0.0055390249485008005
-0.0055390249485008005
-0.004867627985046159
-0.004531929503318838
-0.004196231021591517
-0.004196231021591517
-0.004531929503318838
-0.004196231021591517
-0.003692683299000534
-0.0035248340581368735
-0.0035248340581368735
-0.003189135576409552
-0.003189135576409552
-0.003189135576409552
-0.0028534370946822307
-0.0030212863355458916
-0.0028534370946822307
-0.0028534370946822307
-0.0028534370946822307
-0.0028534370946822307
-0.0028534370946822307
-0.0035248340581368735
-0.0035248340581368735
-0.0035248340581368735
-0.0035248340581368735
-0.003692683299000534
-0.004196231021591517
-0.004531929503318838
-0.004867627985046159
-0.004531929503318838
-0.004531929503318838
-0.004867627985046159
-0.0050354772259098195
-0.0055390249485008005
-0.0050354772259098195
-0.004867627985046159
-0.004867627985046159
-0.004531929503318838
-0.004531929503318838
-0.004531929503318838
-0.003860532539864194
-0.003692683299000534
-0.0035248340581368735
-0.0035248340581368735
-0.0035248340581368735
-0.0035248340581368735
-0.0035248340581368735
-0.0035248340581368735
-0.0035248340581368735
-0.0035248340581368735
-0.003189135576409552
-0.003189135576409552
-0.003692683299000534
-0.004196231021591517
-0.004196231021591517
-0.004531929503318838
-0.0055390249485008005
-0.0055390249485008005
-0.0055390249485008005
-0.006210421911955443
-0.006210421911955443
-0.006210421911955443
-0.005874723430228122
-0.005706874189364461
-0.006210421911955443
-0.006210421911955443
-0.0055390249485008005
-0.0055390249485008005
-0.0052033264667734795
-0.004867627985046159
-0.004531929503318838
-0.004196231021591517
-0.003356984817273213
-0.0028534370946822307
-0.0028534370946822307
-0.0025177386129549098
-0.0028534370946822307
-0.0023498893720912484
-0.0021820401312275884
-0.0021820401312275884
-0.0021820401312275884
-0.0021820401312275884
-0.0021820401312275884
-0.0021820401312275884
-0.0025177386129549098
-0.0030212863355458916
-0.0035248340581368735
-0.003692683299000534
-0.003860532539864194
-0.004196231021591517
-0.004196231021591517
-0.004531929503318838
-0.004867627985046159
-0.004531929503318838
-0.004531929503318838
-0.004364080262455177
-0.004364080262455177
-0.004531929503318838
-0.004531929503318838
-0.004364080262455177
-0.004196231021591517
-0.004531929503318838
-0.004196231021591517
-0.003860532539864194
-0.004196231021591517
-0.003692683299000534
-0.003189135576409552
-0.0028534370946822307
-0.0028534370946822307
-0.0028534370946822307
-0.0021820401312275884
-0.0021820401312275884
-0.0021820401312275884
-0.0021820401312275884
-0.0025177386129549098
-0.0028534370946822307
-0.0028534370946822307
-0.0028534370946822307
-0.003189135576409552
-0.0035248340581368735
-0.003860532539864194
-0.003692683299000534
-0.003860532539864194
-0.004364080262455177
-0.004364080262455177
-0.004867627985046159
-0.0052033264667734795
-0.0055390249485008005
-0.0055390249485008005
-0.0055390249485008005
-0.004867627985046159
-0.004867627985046159
-0.004867627985046159
-0.004531929503318838
-0.004196231021591517
-0.004196231021591517
-0.0035248340581368735
-0.003189135576409552
-0.0028534370946822307
-0.0028534370946822307
-0.0028534370946822307
-0.0023498893720912484
-0.0021820401312275884
-0.0021820401312275884
-0.0021820401312275884
-0.0021820401312275884
-0.0021820401312275884
-0.0021820401312275884
-0.0028534370946822307
-0.0030212863355458916
-0.003189135576409552
-0.0035248340581368735
-0.004196231021591517
-0.004196231021591517
-0.004531929503318838
-0.004867627985046159
-0.004867627985046159
-0.004867627985046159
-0.004867627985046159
-0.0050354772259098195
-0.0055390249485008005
-0.0052033264667734795
-0.004867627985046159
-0.0052033264667734795
-0.0052033264667734795
-0.004867627985046159
-0.004531929503318838
-0.004364080262455177
-0.004196231021591517
-0.0035248340581368735
-0.003189135576409552
-0.003189135576409552
-0.003189135576409552
-0.003189135576409552
-0.003189135576409552
-0.0028534370946822307
-0.0028534370946822307
-0.0028534370946822307
-0.0023498893720912484
-0.0028534370946822307
-0.0035248340581368735
-0.0035248340581368735
-0.003692683299000534
-0.004196231021591517
-0.004196231021591517
-0.004867627985046159
-0.0052033264667734795
-0.0055390249485008005
-0.0055390249485008005
-0.0055390249485008005
-0.0055390249485008005
-0.0055390249485008005
-0.005874723430228122
-0.006210421911955443
-0.006210421911955443
-0.005874723430228122
-0.005874723430228122
-0.0055390249485008005
-0.004867627985046159
-0.004867627985046159
-0.004196231021591517
-0.0035248340581368735
-0.003189135576409552
-0.003189135576409552
-0.0030212863355458916
-0.0035248340581368735
-0.0035248340581368735
-0.003189135576409552
-0.0028534370946822307
-0.0025177386129549098
-0.0028534370946822307
-0.0021820401312275884
-0.0025177386129549098
-0.0028534370946822307
-0.003189135576409552
-0.003692683299000534
-0.004196231021591517
-0.004196231021591517
-0.004531929503318838
-0.004867627985046159
-0.004867627985046159
-0.004867627985046159
-0.004867627985046159
-0.0055390249485008005
-0.0055390249485008005
-0.005874723430228122
-0.005874723430228122
-0.0055390249485008005
-0.004531929503318838
-0.004531929503318838
-0.004531929503318838
-0.004196231021591517
-0.0035248340581368735
-0.0035248340581368735
-0.0030212863355458916
-0.0028534370946822307
-0.0025177386129549098
-0.0021820401312275884
-0.0021820401312275884
-0.0016784924086366065
-0.0015106431677729458
-0.0021820401312275884
-0.0021820401312275884
-0.001846341649500267
-0.0016784924086366065
-0.0021820401312275884
-0.0021820401312275884
-0.0028534370946822307
-0.003189135576409552
-0.004196231021591517
-0.004196231021591517
-0.004531929503318838
-0.004531929503318838
-0.004867627985046159
-0.0050354772259098195
-0.0052033264667734795
-0.004867627985046159
-0.0050354772259098195
-0.0052033264667734795
-0.0055390249485008005
-0.004867627985046159
-0.004867627985046159
-0.004531929503318838
-0.004196231021591517
-0.003189135576409552
-0.0021820401312275884
-0.001846341649500267
-0.0021820401312275884
-0.0021820401312275884
-0.001846341649500267
-0.001846341649500267
-0.0016784924086366065
-0.001846341649500267
-0.001846341649500267
-0.001846341649500267
-0.001846341649500267
-0.001846341649500267
-0.001846341649500267
-0.0028534370946822307
-0.0030212863355458916
-0.003189135576409552
-0.003860532539864194
-0.004196231021591517
-0.004531929503318838
-0.004867627985046159
-0.0055390249485008005
-0.0055390249485008005
-0.005874723430228122
-0.005874723430228122
-0.005874723430228122
-0.005706874189364461
-0.006210421911955443
-0.005874723430228122
-0.0055390249485008005
-0.004867627985046159
-0.004867627985046159
-0.004867627985046159
-0.004531929503318838
-0.004196231021591517
-0.004196231021591517
-0.0035248340581368735
-0.0035248340581368735
-0.003860532539864194
-0.003860532539864194
-0.003860532539864194
-0.0035248340581368735
-0.0035248340581368735
-0.0035248340581368735
-0.0035248340581368735
-0.0035248340581368735
-0.004196231021591517
-0.004531929503318838
-0.004867627985046159
-0.0055390249485008005
-0.006210421911955443
-0.005874723430228122
-0.005874723430228122
-0.006210421911955443
-0.005874723430228122
-0.006210421911955443
-0.006210421911955443
-0.006881818875410085
-0.006210421911955443
-0.005874723430228122
-0.006210421911955443
-0.005706874189364461
-0.004867627985046159
-0.004196231021591517
-0.003860532539864194
-0.0035248340581368735
-0.0028534370946822307
-0.0021820401312275884
-0.0021820401312275884
-0.0028534370946822307
-0.0028534370946822307
-0.0028534370946822307
-0.0028534370946822307
-0.0021820401312275884
-0.0021820401312275884
-0.0028534370946822307
-0.0028534370946822307
-0.0028534370946822307
-0.003692683299000534
-0.004196231021591517
-0.004196231021591517
-0.004531929503318838
-0.004699778744182497
-0.0055390249485008005
-0.005874723430228122
-0.0055390249485008005
-0.0055390249485008005
-0.005874723430228122
-0.0055390249485008005
-0.0055390249485008005
-0.005874723430228122
-0.0055390249485008005
-0.0055390249485008005
-0.004867627985046159
-0.004531929503318838
-0.004531929503318838
-0.0035248340581368735
-0.0028534370946822307
-0.0023498893720912484
-0.0023498893720912484
-0.0015106431677729458
-0.0015106431677729458
-0.001846341649500267
-0.0016784924086366065
-0.0021820401312275884
-0.0021820401312275884
-0.001846341649500267
-0.0021820401312275884
-0.0023498893720912484
-0.0025177386129549098
-0.0028534370946822307
-0.0030212863355458916
-0.003860532539864194
-0.004196231021591517
-0.004196231021591517
-0.004867627985046159
-0.004867627985046159
-0.0055390249485008005
-0.0055390249485008005
-0.0055390249485008005
-0.0055390249485008005
-0.0055390249485008005
-0.0055390249485008005
-0.0055390249485008005
-0.0055390249485008005
-0.004867627985046159
-0.004867627985046159
-0.004531929503318838
-0.003860532539864194
-0.0035248340581368735
-0.003189135576409552
-0.003189135576409552
-0.0028534370946822307
-0.0028534370946822307
-0.0028534370946822307
-0.0028534370946822307
-0.0028534370946822307
-0.0028534370946822307
-0.003189135576409552
-0.0035248340581368735
-0.003189135576409552
-0.003189135576409552
-0.0035248340581368735
-0.004196231021591517
-0.004867627985046159
-0.0055390249485008005
-0.0052033264667734795
-0.0055390249485008005
-0.0055390249485008005
-0.005874723430228122
-0.005874723430228122
-0.006210421911955443
-0.006210421911955443
-0.006378271152819104
-0.006210421911955443
-0.006210421911955443
-0.006210421911955443
-0.0055390249485008005
-0.004867627985046159
-0.004531929503318838
-0.004867627985046159
-0.003692683299000534
-0.0035248340581368735
-0.003189135576409552
-0.0028534370946822307
-0.0028534370946822307
-0.0021820401312275884
-0.0021820401312275884
-0.001846341649500267
-0.0015106431677729458
-0.0016784924086366065
-0.0021820401312275884
-0.0023498893720912484
-0.0028534370946822307
-0.0028534370946822307
-0.003860532539864194
-0.004196231021591517
-0.004196231021591517
-0.004196231021591517
-0.004867627985046159
-0.0050354772259098195
-0.0055390249485008005
-0.0055390249485008005
-0.0055390249485008005
-0.004867627985046159
-0.0050354772259098195
-0.005874723430228122
-0.005874723430228122
-0.0055390249485008005
-0.004867627985046159
-0.004531929503318838
-0.004196231021591517
-0.0035248340581368735
-0.0035248340581368735
-0.003189135576409552
-0.0028534370946822307
-0.0021820401312275884
-0.001846341649500267
-0.0016784924086366065
-0.001846341649500267
-0.001846341649500267
-0.001846341649500267
-0.001846341649500267
-0.0021820401312275884
-0.001846341649500267
-0.0021820401312275884
-0.0028534370946822307
-0.0035248340581368735
-0.004196231021591517
-0.004699778744182497
-0.004867627985046159
-0.0052033264667734795
-0.0055390249485008005
-0.0055390249485008005
-0.005874723430228122
-0.005874723430228122
-0.006210421911955443
-0.006210421911955443
-0.006378271152819104
-0.006546120393682764
-0.006378271152819104
-0.005706874189364461
-0.004867627985046159
-0.004364080262455177
-0.004196231021591517
-0.003692683299000534
-0.003189135576409552
-0.0030212863355458916
-0.0028534370946822307
-0.002014190890363927
-0.001846341649500267
-0.0021820401312275884
-0.0021820401312275884
-0.0016784924086366065
-0.0021820401312275884
-0.001846341649500267
-0.001846341649500267
-0.001846341649500267
-0.0028534370946822307
-0.0035248340581368735
-0.003692683299000534
-0.004196231021591517
-0.004867627985046159
-0.0050354772259098195
-0.004531929503318838
-0.004531929503318838
-0.004531929503318838
-0.0050354772259098195
-0.0055390249485008005
-0.005706874189364461
-0.0052033264667734795
-0.004867627985046159
-0.004867627985046159
-0.004867627985046159
-0.004867627985046159
-0.004196231021591517
-0.0035248340581368735
-0.0028534370946822307
-0.0028534370946822307
-0.0021820401312275884
-0.0016784924086366065
-0.0015106431677729458
-0.0011749446860456242
-0.0015106431677729458
-0.0011749446860456242
-0.001846341649500267
-0.001846341649500267
-0.0016784924086366065
-0.0011749446860456242
-0.001846341649500267
-0.001846341649500267
-0.0028534370946822307
-0.003189135576409552
-0.0035248340581368735
-0.003860532539864194
-0.004196231021591517
-0.004196231021591517
-0.004867627985046159
-0.0055390249485008005
-0.0055390249485008005
-0.004867627985046159
-0.0055390249485008005
-0.005874723430228122
-0.006210421911955443
-0.0055390249485008005
-0.0055390249485008005
-0.0055390249485008005
-0.0052033264667734795
-0.004867627985046159
-0.004196231021591517
-0.0035248340581368735
-0.0030212863355458916
-0.003189135576409552
-0.0028534370946822307
-0.0021820401312275884
-0.001846341649500267
-0.0021820401312275884
-0.0028534370946822307
-0.0028534370946822307
-0.0028534370946822307
-0.0028534370946822307
-0.003189135576409552
-0.0035248340581368735
-0.003860532539864194
-0.004364080262455177
-0.004867627985046159
-0.0052033264667734795
-0.0055390249485008005
-0.005874723430228122
-0.006210421911955443
-0.006210421911955443
-0.006210421911955443
-0.006210421911955443
-0.006210421911955443
-0.006378271152819104
-0.006210421911955443
-0.006210421911955443
-0.0055390249485008005
-0.0055390249485008005
-0.0052033264667734795
-0.004531929503318838
-0.003860532539864194
-0.0035248340581368735
-0.0028534370946822307
-0.0021820401312275884
-0.0028534370946822307
-0.0028534370946822307
-0.0028534370946822307
-0.0025177386129549098
-0.0028534370946822307
-0.0028534370946822307
-0.0025177386129549098
-0.0025177386129549098
-0.003189135576409552
-0.003860532539864194
-0.004196231021591517
-0.004196231021591517
-0.004531929503318838
-0.0050354772259098195
-0.004867627985046159
-0.0052033264667734795
-0.0052033264667734795
-0.0055390249485008005
-0.0055390249485008005
-0.0055390249485008005
-0.0055390249485008005
-0.0050354772259098195
-0.0052033264667734795
-0.004867627985046159
-0.004531929503318838
-0.004196231021591517
-0.0035248340581368735
-0.0035248340581368735
-0.0030212863355458916
-0.0028534370946822307
-0.0028534370946822307
-0.0025177386129549098
-0.0028534370946822307
-0.0028534370946822307
-0.0021820401312275884
-0.0021820401312275884
-0.0021820401312275884
-0.0025177386129549098
-0.0028534370946822307
-0.0028534370946822307
-0.0028534370946822307
-0.0035248340581368735
-0.004196231021591517
-0.004196231021591517
-0.004196231021591517
-0.004867627985046159
-0.004867627985046159
-0.004867627985046159
-0.004867627985046159
-0.004867627985046159
-0.0055390249485008005
-0.0052033264667734795
-0.0050354772259098195
-0.0055390249485008005
-0.0055390249485008005
-0.0055390249485008005
-0.004867627985046159
-0.004531929503318838
-0.004867627985046159
-0.004196231021591517
-0.004196231021591517
-0.003860532539864194
-0.0035248340581368735
-0.0035248340581368735
-0.003189135576409552
-0.0035248340581368735
-0.003860532539864194
-0.003860532539864194
-0.0035248340581368735
-0.0035248340581368735
-0.0035248340581368735
-0.003692683299000534
-0.0035248340581368735
-0.003860532539864194
-0.004196231021591517
-0.004531929503318838
-0.004531929503318838
-0.004196231021591517
-0.004867627985046159
-0.0052033264667734795
-0.004867627985046159
-0.004867627985046159
-0.0055390249485008005
-0.0055390249485008005
-0.0055390249485008005
-0.0052033264667734795
-0.004867627985046159
-0.004531929503318838
-0.004531929503318838
-0.004196231021591517
-0.003860532539864194
-0.003692683299000534
-0.0035248340581368735
-0.003189135576409552
-0.0035248340581368735
-0.003189135576409552
-0.003189135576409552
-0.003356984817273213
-0.0035248340581368735
-0.003189135576409552
-0.003189135576409552
-0.0028534370946822307
-0.0030212863355458916
-0.0035248340581368735
-0.003860532539864194
-0.003860532539864194
-0.004364080262455177
-0.003860532539864194
-0.004196231021591517
-0.004531929503318838
-0.004867627985046159
-0.004531929503318838
-0.004196231021591517
-0.004196231021591517
-0.004364080262455177
-0.004867627985046159
-0.004867627985046159
-0.004867627985046159
-0.004531929503318838
-0.004196231021591517
-0.004196231021591517
-0.004196231021591517
-0.004196231021591517
-0.0035248340581368735
-0.0035248340581368735
-0.0035248340581368735
-0.004196231021591517
-0.003189135576409552
-0.0035248340581368735
-0.0035248340581368735
-0.004196231021591517
-0.003860532539864194
-0.003692683299000534
-0.0035248340581368735
-0.0035248340581368735
-0.0035248340581368735
-0.0035248340581368735
-0.003692683299000534
-0.003692683299000534
-0.004196231021591517
-0.004196231021591517
-0.004531929503318838
-0.004196231021591517
-0.004196231021591517
-0.004196231021591517
-0.004196231021591517
-0.004196231021591517
-0.004196231021591517
-0.003692683299000534
-0.003860532539864194
-0.004196231021591517
-0.004196231021591517
-0.004196231021591517
-0.003692683299000534
-0.003860532539864194
-0.004196231021591517
-0.004531929503318838
-0.004196231021591517
-0.0035248340581368735
-0.0035248340581368735
-0.0035248340581368735
-0.003860532539864194
-0.004196231021591517
-0.003860532539864194
-0.003692683299000534
-0.0035248340581368735
-0.004196231021591517
-0.004196231021591517
-0.004196231021591517
-0.004364080262455177
-0.0035248340581368735
-0.0035248340581368735
-0.003860532539864194
-0.0035248340581368735
-0.004196231021591517
-0.004364080262455177
-0.004196231021591517
-0.004196231021591517
-0.004196231021591517
-0.004196231021591517
-0.003860532539864194
-0.003860532539864194
-0.004196231021591517
-0.004196231021591517
-0.004196231021591517
-0.004196231021591517
-0.004196231021591517
-0.004196231021591517
-0.004867627985046159
-0.004196231021591517
-0.003860532539864194
-0.003860532539864194
-0.0035248340581368735
-0.0035248340581368735
-0.003692683299000534
-0.003860532539864194
-0.0035248340581368735
-0.0035248340581368735
-0.0035248340581368735
-0.003692683299000534
-0.003860532539864194
-0.003860532539864194
-0.0035248340581368735
-0.003189135576409552
-0.0035248340581368735
-0.003860532539864194
-0.004196231021591517
-0.004196231021591517
-0.004196231021591517
-0.004196231021591517
-0.004196231021591517
-0.0035248340581368735
-0.0035248340581368735
-0.0035248340581368735
-0.0035248340581368735
-0.0035248340581368735
-0.004196231021591517
-0.003692683299000534
-0.0035248340581368735
-0.004196231021591517
-0.003860532539864194
-0.003860532539864194
-0.004196231021591517
-0.003860532539864194
-0.0035248340581368735
-0.0035248340581368735
-0.0035248340581368735
-0.003860532539864194
-0.004196231021591517
-0.004531929503318838
-0.004196231021591517
-0.003860532539864194
-0.003692683299000534
-0.0035248340581368735
-0.0035248340581368735
-0.003860532539864194
-0.004196231021591517
-0.004196231021591517
-0.004196231021591517
-0.004196231021591517
-0.004196231021591517
-0.003860532539864194
-0.003860532539864194
-0.003860532539864194
-0.003860532539864194
-0.004196231021591517
-0.004531929503318838
-0.004196231021591517
-0.004196231021591517
-0.004196231021591517
-0.003860532539864194
-0.003860532539864194
-0.003860532539864194
-0.004196231021591517
-0.0035248340581368735
-0.0035248340581368735
-0.003692683299000534
-0.0035248340581368735
-0.0035248340581368735
-0.0035248340581368735
-0.004196231021591517
-0.004196231021591517
-0.004196231021591517
-0.0035248340581368735
-0.0035248340581368735
-0.0035248340581368735
-0.0035248340581368735
-0.0035248340581368735
-0.003860532539864194
-0.003860532539864194
-0.004196231021591517
-0.004196231021591517
-0.004531929503318838
-0.004196231021591517
-0.004364080262455177
-0.004196231021591517
-0.004196231021591517
-0.004196231021591517
-0.003860532539864194
-0.003692683299000534
-0.003860532539864194
-0.004196231021591517
-0.003860532539864194
-0.004196231021591517
-0.004196231021591517
-0.004531929503318838
-0.004196231021591517
-0.004196231021591517
-0.004196231021591517
-0.003692683299000534
-0.004196231021591517
-0.004531929503318838
-0.004531929503318838
-0.004531929503318838
-0.004196231021591517
-0.003860532539864194
-0.004196231021591517
-0.003692683299000534
-0.0035248340581368735
-0.004196231021591517
-0.0035248340581368735
-0.003356984817273213
-0.003189135576409552
-0.0035248340581368735
-0.0035248340581368735
-0.0035248340581368735
-0.0035248340581368735
-0.0035248340581368735
-0.004196231021591517
-0.004196231021591517
-0.004196231021591517
-0.004364080262455177
-0.004531929503318838
-0.0052033264667734795
-0.004867627985046159
-0.004867627985046159
-0.004867627985046159
-0.004867627985046159
-0.0055390249485008005
-0.004867627985046159
-0.004867627985046159
-0.004364080262455177
-0.004867627985046159
-0.004531929503318838
-0.004196231021591517
-0.003692683299000534
-0.004196231021591517
-0.004364080262455177
-0.004196231021591517
-0.0035248340581368735
-0.0035248340581368735
-0.003692683299000534
-0.004196231021591517
-0.004196231021591517
-0.004196231021591517
-0.004196231021591517
-0.004196231021591517
-0.0035248340581368735
-0.0035248340581368735
-0.004028381780727854
-0.004196231021591517
-0.004196231021591517
-0.003860532539864194
-0.003692683299000534
-0.003860532539864194
-0.004196231021591517
-0.004196231021591517
-0.003860532539864194
-0.004364080262455177
-0.004364080262455177
-0.004867627985046159
-0.004531929503318838
-0.004196231021591517
-0.004364080262455177
-0.004196231021591517
-0.004196231021591517
-0.004196231021591517
-0.004196231021591517
-0.004196231021591517
-0.004196231021591517
-0.004196231021591517
-0.0035248340581368735
-0.0035248340581368735
-0.0035248340581368735
-0.0035248340581368735
-0.0035248340581368735
-0.0035248340581368735
-0.0035248340581368735
-0.0035248340581368735
-0.004196231021591517
-0.003860532539864194
-0.003860532539864194
-0.003860532539864194
-0.0035248340581368735
-0.0035248340581368735
-0.0035248340581368735
-0.0035248340581368735
-0.004196231021591517
-0.004364080262455177
-0.004196231021591517
-0.004196231021591517
-0.004531929503318838
-0.004364080262455177
-0.004364080262455177
-0.004196231021591517
-0.004196231021591517
-0.004364080262455177
-0.004196231021591517
-0.004196231021591517
-0.004196231021591517
-0.004196231021591517
-0.004196231021591517
-0.004196231021591517
-0.004196231021591517
-0.004364080262455177
-0.004196231021591517
-0.004196231021591517
-0.004196231021591517
-0.004196231021591517
-0.003860532539864194
-0.004196231021591517
-0.003860532539864194
-0.003692683299000534
-0.0035248340581368735
-0.003692683299000534
-0.003189135576409552
-0.0028534370946822307
-0.0030212863355458916
-0.003189135576409552
-0.003692683299000534
-0.003860532539864194
-0.004196231021591517
-0.004364080262455177
-0.004196231021591517
-0.004196231021591517
-0.004196231021591517
-0.004196231021591517
-0.004196231021591517
-0.004196231021591517
-0.0035248340581368735
-0.004196231021591517
-0.003860532539864194
-0.004196231021591517
-0.003860532539864194
-0.003189135576409552
-0.003189135576409552
-0.0035248340581368735
-0.0035248340581368735
-0.0035248340581368735
-0.003189135576409552
-0.0035248340581368735
-0.0035248340581368735
-0.003860532539864194
-0.0035248340581368735
-0.003692683299000534
-0.003860532539864194
-0.004531929503318838
-0.004531929503318838
-0.004196231021591517
-0.004196231021591517
-0.004364080262455177
-0.004531929503318838
-0.004867627985046159
-0.004867627985046159
-0.004867627985046159
-0.004867627985046159
-0.004867627985046159
-0.0052033264667734795
-0.0052033264667734795
-0.0052033264667734795
-0.004867627985046159
-0.004196231021591517
-0.004196231021591517
-0.004196231021591517
-0.004196231021591517
-0.004196231021591517
-0.003692683299000534
-0.0035248340581368735
-0.004196231021591517
-0.004196231021591517
-0.0035248340581368735
-0.0035248340581368735
-0.0035248340581368735
-0.0035248340581368735
-0.003692683299000534
-0.0035248340581368735
-0.003189135576409552
-0.003189135576409552
-0.0035248340581368735
-0.003860532539864194
-0.004196231021591517
-0.004196231021591517
-0.004364080262455177
-0.004531929503318838
-0.004867627985046159
-0.004867627985046159
-0.004699778744182497
-0.004196231021591517
-0.004531929503318838
-0.004531929503318838
-0.004196231021591517
-0.004196231021591517
-0.004867627985046159
-0.004867627985046159
-0.004364080262455177
-0.004196231021591517
-0.004196231021591517
-0.004196231021591517
-0.004196231021591517
-0.004196231021591517
-0.003860532539864194
-0.0035248340581368735
-0.004196231021591517
-0.003692683299000534
-0.0035248340581368735
-0.003692683299000534
-0.003860532539864194
-0.003860532539864194
-0.003860532539864194
-0.004196231021591517
-0.004196231021591517
-0.004196231021591517
-0.004196231021591517
-0.004196231021591517
-0.004364080262455177
-0.004196231021591517
-0.004196231021591517
-0.004364080262455177
-0.004364080262455177
-0.004531929503318838
-0.004364080262455177
-0.004196231021591517
-0.004196231021591517
-0.004196231021591517
-0.004196231021591517
-0.003860532539864194
-0.004531929503318838
-0.004196231021591517
-0.004196231021591517
-0.004196231021591517
-0.004196231021591517
-0.0035248340581368735
-0.0035248340581368735
-0.003189135576409552
-0.003189135576409552
-0.003189135576409552
-0.003189135576409552
-0.0035248340581368735
-0.004196231021591517
-0.004196231021591517
-0.004196231021591517
-0.003189135576409552
-0.0035248340581368735
-0.003860532539864194
-0.004196231021591517
-0.004196231021591517
-0.003692683299000534
-0.004196231021591517
-0.004196231021591517
-0.004531929503318838
-0.004867627985046159
-0.004867627985046159
-0.004531929503318838
-0.004196231021591517
-0.004531929503318838
-0.004364080262455177
-0.004531929503318838
-0.004196231021591517
-0.004196231021591517
-0.004196231021591517
-0.004196231021591517
-0.004364080262455177
-0.004196231021591517
-0.003860532539864194
-0.004196231021591517
-0.003692683299000534
-0.003356984817273213
-0.0035248340581368735
-0.0035248340581368735
-0.003860532539864194
-0.003860532539864194
-0.0035248340581368735
-0.0035248340581368735
-0.0035248340581368735
-0.0035248340581368735
-0.0035248340581368735
-0.003860532539864194
-0.004196231021591517
-0.004196231021591517
-0.004196231021591517
-0.004196231021591517
-0.004196231021591517
-0.004196231021591517
-0.004196231021591517
-0.004196231021591517
-0.004196231021591517
-0.004196231021591517
-0.004196231021591517
-0.004196231021591517
-0.003860532539864194
-0.004196231021591517
-0.004364080262455177
-0.004531929503318838
-0.004196231021591517
-0.003860532539864194
-0.003692683299000534
-0.003860532539864194
-0.0035248340581368735
-0.003692683299000534
-0.0035248340581368735
-0.003189135576409552
-0.0035248340581368735
-0.003189135576409552
-0.0035248340581368735
-0.0035248340581368735
-0.0035248340581368735
-0.003189135576409552
-0.0035248340581368735
-0.0035248340581368735
-0.003189135576409552
-0.0035248340581368735
-0.003860532539864194
-0.004196231021591517
-0.004196231021591517
-0.004531929503318838
-0.004867627985046159
-0.0050354772259098195
-0.0052033264667734795
-0.004867627985046159
-0.004196231021591517
-0.004196231021591517
-0.004531929503318838
-0.004364080262455177
-0.004196231021591517
-0.004196231021591517
-0.004196231021591517
-0.004196231021591517
-0.004196231021591517
-0.004196231021591517
-0.003860532539864194
-0.0035248340581368735
-0.003860532539864194
-0.004196231021591517
-0.004196231021591517
-0.0035248340581368735
-0.0035248340581368735
-0.003692683299000534
-0.0035248340581368735
-0.0035248340581368735
-0.003692683299000534
-0.003860532539864194
-0.004196231021591517
-0.004196231021591517
-0.004196231021591517
-0.004196231021591517
-0.004196231021591517
-0.004531929503318838
-0.0050354772259098195
-0.004867627985046159
-0.004531929503318838
-0.004531929503318838
-0.004196231021591517
-0.004196231021591517
-0.004531929503318838
-0.004867627985046159
-0.004531929503318838
-0.004196231021591517
-0.0035248340581368735
-0.0035248340581368735
-0.004196231021591517
-0.004196231021591517
-0.004196231021591517
-0.004196231021591517
-0.0035248340581368735
-0.003860532539864194
-0.004196231021591517
-0.004196231021591517
-0.003860532539864194
-0.003692683299000534
-0.003692683299000534
-0.003860532539864194
-0.0035248340581368735
-0.0035248340581368735
-0.0035248340581368735
-0.003692683299000534
-0.0035248340581368735
-0.004196231021591517
-0.004196231021591517
-0.004196231021591517
-0.004364080262455177
-0.004867627985046159
-0.004867627985046159
-0.004531929503318838
-0.004196231021591517
-0.004196231021591517
-0.004196231021591517
-0.004196231021591517
-0.004364080262455177
-0.004196231021591517
-0.004196231021591517
-0.004196231021591517
-0.004196231021591517
-0.003860532539864194
-0.003860532539864194
-0.004196231021591517
-0.0035248340581368735
-0.0035248340581368735
-0.003860532539864194
-0.004196231021591517
-0.004196231021591517
-0.004196231021591517
-0.003860532539864194
-0.0035248340581368735
-0.0035248340581368735
-0.0035248340581368735
-0.003860532539864194
-0.004196231021591517
-0.003860532539864194
-0.004196231021591517
-0.004196231021591517
-0.004867627985046159
-0.004531929503318838
-0.004196231021591517
-0.004364080262455177
-0.004531929503318838
-0.004364080262455177
-0.004196231021591517
-0.004196231021591517
-0.004196231021591517
-0.004196231021591517
-0.003860532539864194
-0.003860532539864194
-0.004196231021591517
-0.003860532539864194
-0.0035248340581368735
-0.0035248340581368735
-0.0035248340581368735
-0.0030212863355458916
-0.0035248340581368735
-0.003860532539864194
-0.003692683299000534
-0.0035248340581368735
-0.003189135576409552
-0.003860532539864194
-0.004196231021591517
-0.0035248340581368735
-0.0035248340581368735
-0.0035248340581368735
-0.003860532539864194
-0.004196231021591517
-0.003692683299000534
-0.0035248340581368735
-0.004196231021591517
-0.004196231021591517
-0.004364080262455177
-0.004531929503318838
-0.004867627985046159
-0.004364080262455177
-0.004196231021591517
-0.004531929503318838
-0.004867627985046159
-0.004531929503318838
-0.003860532539864194
-0.004196231021591517
-0.004196231021591517
-0.003860532539864194
-0.0035248340581368735
-0.003189135576409552
-0.0035248340581368735
-0.003860532539864194
-0.004196231021591517
-0.004196231021591517
-0.003860532539864194
-0.003860532539864194
-0.003860532539864194
-0.004196231021591517
-0.004196231021591517
-0.004196231021591517
-0.004196231021591517
-0.003860532539864194
-0.003860532539864194
-0.004196231021591517
-0.004196231021591517
-0.004196231021591517
-0.004196231021591517
-0.004196231021591517
-0.004531929503318838
-0.004867627985046159
-0.004531929503318838
-0.004531929503318838
-0.004531929503318838
-0.004531929503318838
-0.004531929503318838
-0.004531929503318838
-0.004531929503318838
-0.004867627985046159
-0.004867627985046159
-0.004196231021591517
-0.004531929503318838
-0.004196231021591517
-0.004196231021591517
-0.004196231021591517
-0.004196231021591517
-0.004196231021591517
-0.004196231021591517
-0.0035248340581368735
-0.0035248340581368735
-0.0035248340581368735
-0.0035248340581368735
-0.0035248340581368735
-0.003189135576409552
-0.0035248340581368735
-0.004531929503318838
-0.004364080262455177
-0.003860532539864194
-0.0035248340581368735
-0.0035248340581368735
-0.003860532539864194
-0.004196231021591517
-0.004196231021591517
-0.004196231021591517
-0.004196231021591517
-0.004196231021591517
-0.004196231021591517
-0.004531929503318838
-0.004531929503318838
-0.004531929503318838
-0.004196231021591517
-0.004196231021591517
-0.0035248340581368735
-0.0035248340581368735
-0.003860532539864194
-0.0035248340581368735
-0.0035248340581368735
-0.003189135576409552
-0.0025177386129549098
-0.0030212863355458916
-0.0035248340581368735
-0.003189135576409552
-0.0035248340581368735
-0.004196231021591517
-0.004196231021591517
-0.003860532539864194
-0.0035248340581368735
-0.004196231021591517
-0.004364080262455177
-0.004196231021591517
-0.004196231021591517
-0.003860532539864194
-0.003860532539864194
-0.004196231021591517
-0.004196231021591517
-0.004531929503318838
-0.004867627985046159
-0.004196231021591517
-0.004196231021591517
-0.004196231021591517
-0.004196231021591517
-0.004867627985046159
-0.004867627985046159
-0.004196231021591517
-0.0035248340581368735
-0.003860532539864194
-0.004196231021591517
-0.004196231021591517
-0.0035248340581368735
-0.004196231021591517
-0.004196231021591517
-0.004196231021591517
-0.003860532539864194
-0.003692683299000534
-0.003860532539864194
-0.004196231021591517
-0.0035248340581368735
-0.003860532539864194
-0.003692683299000534
-0.003860532539864194
-0.004196231021591517
-0.003860532539864194
-0.004196231021591517
-0.004196231021591517
-0.003692683299000534
-0.004196231021591517
-0.004531929503318838
-0.004867627985046159
-0.004531929503318838
-0.004196231021591517
-0.004196231021591517
-0.004196231021591517
-0.004196231021591517
-0.004196231021591517
-0.004196231021591517
-0.004196231021591517
-0.0035248340581368735
-0.003860532539864194
-0.004196231021591517
-0.004196231021591517
-0.003860532539864194
-0.004196231021591517
-0.003860532539864194
-0.0035248340581368735
-0.0035248340581368735
-0.0035248340581368735
-0.004196231021591517
-0.004196231021591517
-0.004196231021591517
-0.004196231021591517
-0.004196231021591517
-0.004196231021591517
-0.004196231021591517
-0.004196231021591517
-0.004531929503318838
-0.004196231021591517
-0.003860532539864194
-0.004196231021591517
-0.004531929503318838
-0.004196231021591517
-0.003860532539864194
-0.004196231021591517
-0.003860532539864194
-0.004196231021591517
-0.003860532539864194
-0.0035248340581368735
-0.0035248340581368735
-0.004196231021591517
-0.004196231021591517
-0.004196231021591517
-0.0035248340581368735
-0.0035248340581368735
-0.0035248340581368735
-0.0028534370946822307
-0.003189135576409552
-0.0035248340581368735
-0.003189135576409552
-0.0035248340581368735
-0.0035248340581368735
-0.0035248340581368735
-0.003189135576409552
-0.003189135576409552
-0.0035248340581368735
-0.0035248340581368735
-0.0035248340581368735
-0.0035248340581368735
-0.004196231021591517
-0.004196231021591517
-0.004196231021591517
-0.004531929503318838
-0.004867627985046159
-0.004531929503318838
-0.004196231021591517
-0.004196231021591517
-0.004531929503318838
-0.004364080262455177
-0.004196231021591517
-0.004364080262455177
-0.004531929503318838
-0.004196231021591517
-0.003860532539864194
-0.0035248340581368735
-0.0035248340581368735
-0.004196231021591517
-0.004196231021591517
-0.003860532539864194
-0.004196231021591517
-0.004364080262455177
-0.004196231021591517
-0.003189135576409552
-0.0035248340581368735
-0.0035248340581368735
-0.0035248340581368735
-0.0035248340581368735
-0.003692683299000534
-0.004196231021591517
-0.003860532539864194
-0.004196231021591517
-0.004196231021591517
-0.004196231021591517
-0.004196231021591517
-0.004531929503318838
-0.004531929503318838
-0.004867627985046159
-0.004867627985046159
-0.004867627985046159
-0.004867627985046159
-0.004531929503318838
-0.004196231021591517
-0.004196231021591517
-0.004196231021591517
-0.004196231021591517
-0.004196231021591517
-0.004196231021591517
-0.003860532539864194
-0.0035248340581368735
-0.003692683299000534
-0.004196231021591517
-0.004196231021591517
-0.004196231021591517
-0.003692683299000534
-0.004196231021591517
-0.004196231021591517
-0.004531929503318838
-0.004196231021591517
-0.004364080262455177
-0.004196231021591517
-0.003692683299000534
-0.0035248340581368735
-0.0035248340581368735
-0.003860532539864194
-0.003860532539864194
-0.004196231021591517
-0.004196231021591517
-0.004531929503318838
-0.004364080262455177
-0.004196231021591517
-0.004531929503318838
-0.004364080262455177
-0.003860532539864194
-0.003692683299000534
-0.004196231021591517
-0.004196231021591517
-0.004196231021591517
-0.004196231021591517
-0.004196231021591517
-0.004196231021591517
-0.004196231021591517
-0.004531929503318838
-0.004531929503318838
-0.004364080262455177
-0.004196231021591517
-0.003860532539864194
-0.004196231021591517
-0.003860532539864194
-0.0035248340581368735
-0.004196231021591517
-0.004196231021591517
-0.0035248340581368735
-0.004196231021591517
-0.004364080262455177
-0.004364080262455177
-0.004196231021591517
-0.004196231021591517
-0.004867627985046159
-0.004867627985046159
-0.004867627985046159
-0.004867627985046159
-0.004531929503318838
-0.004364080262455177
-0.003860532539864194
-0.003692683299000534
-0.0035248340581368735
-0.004196231021591517
-0.004196231021591517
-0.004196231021591517
-0.0035248340581368735
-0.0035248340581368735
-0.004196231021591517
-0.004196231021591517
-0.003860532539864194
-0.0035248340581368735
-0.0035248340581368735
-0.0035248340581368735
-0.0035248340581368735
-0.003189135576409552
-0.0035248340581368735
-0.004196231021591517
-0.004196231021591517
-0.003860532539864194
-0.0035248340581368735
-0.0035248340581368735
-0.003860532539864194
-0.0035248340581368735
-0.0035248340581368735
-0.003860532539864194
-0.004196231021591517
-0.004196231021591517
-0.004196231021591517
-0.004196231021591517
-0.004196231021591517
-0.004196231021591517
-0.003692683299000534
-0.003860532539864194
-0.004196231021591517
-0.004196231021591517
-0.003860532539864194
-0.004196231021591517
-0.004196231021591517
-0.004196231021591517
-0.004196231021591517
-0.0035248340581368735
-0.004196231021591517
-0.0035248340581368735
-0.0035248340581368735
-0.003860532539864194
-0.004196231021591517
-0.004196231021591517
-0.003860532539864194
-0.003860532539864194
-0.004196231021591517
-0.003860532539864194
-0.0035248340581368735
-0.003692683299000534
-0.004196231021591517
-0.003860532539864194
-0.003860532539864194
-0.004196231021591517
-0.004196231021591517
-0.003860532539864194
-0.003860532539864194
-0.003692683299000534
-0.0035248340581368735
-0.004196231021591517
-0.004196231021591517
-0.004196231021591517
-0.003860532539864194
-0.003860532539864194
-0.003860532539864194
-0.004364080262455177
-0.004196231021591517
-0.003692683299000534
-0.0035248340581368735
-0.0035248340581368735
-0.0035248340581368735
-0.003692683299000534
-0.004196231021591517
-0.003692683299000534
-0.0035248340581368735
-0.003860532539864194
-0.003692683299000534
-0.004196231021591517
-0.004196231021591517
-0.004196231021591517
-0.004196231021591517
-0.004196231021591517
-0.004196231021591517
-0.004196231021591517
-0.004196231021591517
-0.004196231021591517
-0.004196231021591517
-0.004196231021591517
-0.004196231021591517
-0.004196231021591517
-0.004196231021591517
-0.004531929503318838
-0.004531929503318838
-0.004196231021591517
-0.003692683299000534
-0.003860532539864194
-0.003860532539864194
-0.003860532539864194
-0.0035248340581368735
-0.004196231021591517
-0.003860532539864194
-0.004196231021591517
-0.004196231021591517
-0.003860532539864194
-0.0035248340581368735
-0.0035248340581368735
-0.0035248340581368735
-0.004196231021591517
-0.0035248340581368735
-0.0035248340581368735
-0.003692683299000534
-0.003860532539864194
-0.0035248340581368735
-0.003860532539864194
-0.003860532539864194
-0.004196231021591517
-0.004196231021591517
-0.004196231021591517
-0.004531929503318838
-0.004867627985046159
-0.004531929503318838
-0.004867627985046159
-0.004531929503318838
-0.004531929503318838
-0.004196231021591517
-0.004196231021591517
-0.004196231021591517
-0.004531929503318838
-0.004196231021591517
-0.004196231021591517
-0.004196231021591517
-0.003860532539864194
-0.0035248340581368735
-0.0035248340581368735
-0.0035248340581368735
-0.003189135576409552
-0.0035248340581368735
-0.0035248340581368735
-0.0035248340581368735
-0.003692683299000534
-0.0035248340581368735
-0.0035248340581368735
-0.0035248340581368735
-0.0035248340581368735
-0.0035248340581368735
-0.0035248340581368735
-0.004196231021591517
-0.004196231021591517
-0.003692683299000534
-0.003860532539864194
-0.004196231021591517
-0.004196231021591517
-0.004531929503318838
-0.004196231021591517
-0.004196231021591517
-0.004531929503318838
-0.004196231021591517
-0.003692683299000534
-0.004196231021591517
-0.003860532539864194
-0.004196231021591517
-0.004531929503318838
-0.003860532539864194
-0.003692683299000534
-0.0035248340581368735
-0.0035248340581368735
-0.0035248340581368735
-0.0035248340581368735
-0.0035248340581368735
-0.003356984817273213
-0.0035248340581368735
-0.003692683299000534
-0.0035248340581368735
-0.003692683299000534
-0.0035248340581368735
-0.0035248340581368735
-0.0035248340581368735
-0.003692683299000534
-0.004196231021591517
-0.0035248340581368735
-0.004196231021591517
-0.004196231021591517
-0.004531929503318838
-0.004196231021591517
-0.004196231021591517
-0.004531929503318838
-0.004867627985046159
-0.004531929503318838
-0.004196231021591517
-0.004196231021591517
-0.004196231021591517
-0.004364080262455177
-0.004196231021591517
-0.004196231021591517
-0.003692683299000534
-0.003860532539864194
-0.0035248340581368735
-0.003692683299000534
-0.004196231021591517
-0.004196231021591517
-0.003860532539864194
-0.004196231021591517
-0.004196231021591517
-0.004196231021591517
-0.003860532539864194
-0.003860532539864194
-0.004196231021591517
-0.004196231021591517
-0.003860532539864194
-0.004196231021591517
-0.004196231021591517
-0.004196231021591517
-0.004196231021591517
-0.004531929503318838
-0.004531929503318838
-0.004531929503318838
-0.004531929503318838
-0.004364080262455177
-0.004364080262455177
-0.004867627985046159
-0.004867627985046159
-0.004196231021591517
-0.004196231021591517
-0.004364080262455177
-0.004196231021591517
-0.0035248340581368735
-0.0035248340581368735
-0.003692683299000534
-0.004196231021591517
-0.0035248340581368735
-0.003692683299000534
-0.003189135576409552
-0.003189135576409552
-0.0035248340581368735
-0.004196231021591517
-0.0035248340581368735
-0.0035248340581368735
-0.0035248340581368735
-0.003860532539864194
-0.004196231021591517
-0.003860532539864194
-0.0035248340581368735
-0.0035248340581368735
-0.003189135576409552
-0.0035248340581368735
-0.0035248340581368735
-0.003860532539864194
-0.003860532539864194
-0.0035248340581368735
-0.004196231021591517
-0.004196231021591517
-0.004196231021591517
-0.003860532539864194
-0.003860532539864194
-0.004196231021591517
-0.003860532539864194
-0.004196231021591517
-0.004364080262455177
-0.004364080262455177
-0.0052033264667734795
-0.0055390249485008005
-0.006210421911955443
0.5992217898832686
3.6858014801251238
5.451239795529106
5.47843137254902
5.479774166475929
5.479774166475929
5.479438467994202
5.479102769512474
5.479438467994202
5.479438467994202
5.479774166475929
5.479438467994202
3.330632486457618
-4.110795757991912
-5.488670176241703
-5.492698558022431
-5.493705653467612
-5.49404135194934
-5.494377050431067
-5.494209201190204
-5.49454489967193
-5.49454489967193
-5.494712748912795
-5.494712748912795
-5.49454489967193
-5.494712748912795
-5.494880598153658
-5.494712748912795
-5.49454489967193
-5.494880598153658
-5.494712748912795
-5.494880598153658
-5.494880598153658
-5.494880598153658
-5.494880598153658
-5.494712748912795
-5.494880598153658
-5.494712748912795
-5.495048447394521
-5.494880598153658
-5.494880598153658
-5.494880598153658
-5.495048447394521
-5.495048447394521
-5.494880598153658
-5.495048447394521
-5.495048447394521
-5.494880598153658
-5.494880598153658
-5.495216296635386
-5.494712748912795
-5.494880598153658
-5.495216296635386
-5.495048447394521
-5.495048447394521
-5.495216296635386
-5.495048447394521
-5.495216296635386
-5.494880598153658
-5.495048447394521
-5.494880598153658
-5.495048447394521
-5.494880598153658
-5.494880598153658
-5.494880598153658
-2.6834058136873424
1.5047684443427176
5.4415045395590145
5.47708857862211
5.47843137254902
5.479102769512474
5.479102769512474
5.479438467994202
5.479438467994202
5.479438467994202
5.479102769512474
5.199801632715342
3.5125810635538257
0.4318760967421988
-3.7794613565270456
-5.485984588387884
-5.492698558022431
-5.493705653467612
-5.494209201190204
-5.49454489967193
-5.494377050431067
-5.494377050431067
-5.49454489967193
-5.49454489967193
-5.494377050431067
-5.494712748912795
-4.275120164797436
-1.9979095140001528
1.8085755703059434
5.462989242389562
5.47708857862211
5.47843137254902
5.47843137254902
5.479102769512474
5.479438467994202
5.479438467994202
5.479102769512474
5.479102769512474
5.479774166475929
5.479438467994202
5.479102769512474
5.479102769512474
5.479438467994202
5.479774166475929
5.479102769512474
5.479438467994202
5.479774166475929
3.9449607080186158
-0.45067521171892877
-4.911100938429847
-5.490180819409476
-5.493034256504157
-5.493873502708476
-5.493873502708476
-5.494209201190204
-5.494209201190204
-5.49454489967193
-4.489631494621194
-2.8431982909895477
-0.30330357824063475
3.6921797512779424
5.4750743877317465
5.4780956740672915
5.47843137254902
5.479102769512474
5.479102769512474
5.479438467994202
5.479774166475929
5.479774166475929
5.479774166475929
5.479774166475929
5.479774166475929
5.479774166475929
5.479774166475929
5.479774166475929
5.479774166475929
5.479774166475929
5.479774166475929
5.479774166475929
2.5390554665445944
-2.0548104066529334
-5.459464408331426
-5.491691462577248
-5.493202105745021
-5.493873502708476
-5.49454489967193
-5.494377050431067
-5.494377050431067
-5.494209201190204
-5.49454489967193
-5.49454489967193
-4.075547417410545
-1.4920119020370792
2.861997405966277
5.471046005951019
5.477759975585565
5.47843137254902
5.479102769512474
5.479102769512474
5.479438467994202
5.479606317235064
5.479774166475929
5.479774166475929
5.479102769512474
5.479774166475929
5.479774166475929
5.479774166475929
5.479774166475929
5.479774166475929
5.479774166475929
3.2252231631952393
-1.7029983978027008
-5.455603875791562
-5.4918593118181125
-5.493369954985885
-5.49404135194934
-5.494377050431067
-5.494377050431067
-5.49454489967193
-5.49454489967193
-5.49454489967193
-5.49454489967193
-5.49454489967193
-4.7184100099183635
-2.5205920500495917
1.3271839475089646
5.405584802014191
5.477759975585565
5.47843137254902
5.479102769512474
5.479102769512474
5.479438467994202
5.479774166475929
5.479774166475929
5.479438467994202
5.479774166475929
5.479438467994202
5.479774166475929
5.479774166475929
5.480445563439384
5.480445563439384
5.48078126192111
5.48078126192111
5.48078126192111
5.481116960402838
5.481116960402838
5.48078126192111
5.481116960402838
5.479774166475929
5.479774166475929
5.479774166475929
5.479774166475929
5.479774166475929
5.479774166475929
5.479774166475929
5.480445563439384
4.093339436942092
-0.5510490577553979
-4.910765239948119
-5.489341573205158
-5.492195010299839
-5.493034256504157
-5.493202105745021
-5.493537804226749
-5.493537804226749
-5.493537804226749
-5.493873502708476
-5.493705653467612
-5.493873502708476
-5.493537804226749
-5.49404135194934
-5.493873502708476
-5.493873502708476
-5.49404135194934
-5.49404135194934
-5.49404135194934
-5.49404135194934
-5.49404135194934
-5.493873502708476
-5.49404135194934
-5.49404135194934
-5.49404135194934
-5.493873502708476
-5.49404135194934
-5.49404135194934
-5.49404135194934
-5.49404135194934
-5.49404135194934
-5.49404135194934
-5.49404135194934
-5.49404135194934
-5.494209201190204
-5.49404135194934
-5.494209201190204
-5.494209201190204
-5.494209201190204
-5.49404135194934
-5.494209201190204
-5.49454489967193
-5.494209201190204
-5.49404135194934
-5.494377050431067
-5.494209201190204
-5.494209201190204
-5.494209201190204
-5.49404135194934
-5.49404135194934
-5.49404135194934
-5.49404135194934
-5.49404135194934
-5.493873502708476
-5.493873502708476
-5.222964827954527
-4.63112840466926
-4.072861829556726
-3.5288624399176007
-3.0009765774013886
-2.497932402532997
-2.0197299153124284
-1.56586556801709
-1.1336537727931637
-0.7232623788815137
-0.33519493400473027
0.02937361715114061
0.37228961623559925
0.6943923094529639
0.9966887922484168
1.2791790646219576
1.5420309758144501
1.7857480735484854
2.0126802471961547
2.2218204013122755
2.412832837415122
2.5884031433585104
2.7508812085145338
2.8995956359197375
3.035721370260166
3.158083466849775
3.2661783779659723
3.3642023346303502
3.452155336842908
3.5300373846036472
3.5985198748760205
3.658274204623484
3.7072861829556722
3.748241397726406
3.782146944380865
3.809338521400778
3.8301518272678723
3.8442511635004193
3.8536507209887843
3.8583504997329667
3.8563363088426037
3.848950942244602
3.838208590829328
3.823773556115053
3.8053101396200506
3.781811245899138
3.756298161287861
3.73145647364004
3.7056076905470356
3.6790875104905774
3.6508888380254825
3.624032959487297
3.601205462729839
3.4075074387731745
2.5242847333485923
1.0730601968413824
-0.8286717021438925
-3.2487220569161517
-5.435461966887922
-5.4918593118181125
-5.493369954985885
-5.49404135194934
-5.494209201190204
-5.494377050431067
-5.49454489967193
-5.494209201190204
-5.494377050431067
-5.49454489967193
-5.494712748912795
-5.494712748912795
-5.494880598153658
-5.494712748912795
-5.494880598153658
-5.494712748912795
-5.494712748912795
-5.494712748912795
-5.49454489967193
-5.49454489967193
-5.344487678339818
-4.655802243076218
-4.519844357976653
-4.065812161440451
-3.097322041657129
-1.9114671549553675
-0.6702220187685969
0.5980468451972228
1.1660486762798503
1.640054932478828
2.3784237430380712
2.654535744258793
3.0415960936903943
3.82545204852369
3.515938048371099
2.4907148851758603
1.8065613794155797
1.838452735179675
3.067444876783398
4.788235294117646
5.476417181658655
5.47843137254902
5.47843137254902
5.360936903944457
4.748622873273822
4.066483558403906
3.456183718623636
3.1470054169527732
3.5461509117265577
4.8066987106126495
5.47843137254902
5.479438467994202
5.479438467994202
5.479774166475929
5.479774166475929
5.479774166475929
5.479774166475929
5.479774166475929
5.479774166475929
5.479774166475929
5.479774166475929
5.479774166475929
4.954573891813535
3.7851682307164114
2.5390554665445944
0.581597619592584
-1.1620202944991225
-2.248844129091325
-2.3211871519035627
-1.7733272297245746
-1.5557946135652703
-1.8861219195849548
-1.2306706340123597
0.3200885023270008
1.0376440070191502
1.1230792706187533
2.024765392538338
4.869977874418249
5.47708857862211
5.47843137254902
5.479102769512474
5.479102769512474
5.479438467994202
5.479438467994202
5.479774166475929
5.479774166475929
5.479774166475929
5.479774166475929
5.479774166475929
5.140047302967879
3.813366903181506
3.094972152285038
3.3219043259327075
3.603219653620202
4.34914168001831
5.406591897459373
5.479102769512474
4.260517280842297
2.631708247501335
2.005630579079881
2.318501564049744
2.4282749675745783
2.0898908979934383
1.8720225833524073
2.222827496757458
3.2453650720988785
3.841565575646601
3.973495078965438
3.9651026169222554
3.250400549324788
2.081162737468528
2.0079804684519726
2.846555275806821
2.961699855039292
2.4370031280994886
1.7585564965285723
1.6017853055619133
1.9569542992294193
2.0731059739070723
1.5695582513160908
0.8545204852368964
0.3556725413900969
0.3184100099183642
0.9327382314793622
1.4097657740138856
0.9119249256122682
0.029037918669413288
0.01829556725413901
0.8484779125658044
1.9905241474021513
2.541069657434958
2.2637827115281905
2.3119554436560614
3.043274586099031
3.726756694895857
4.000015259021897
4.078904402227818
4.282673380636302
4.394125276569771
4.060440985732814
3.445105668726635
2.974792095826657
3.5790493629358355
5.305210955977722
5.47843137254902
5.479102769512474
5.479102769512474
5.479774166475929
5.479774166475929
5.479774166475929
5.479774166475929
5.388464179446098
5.050080109864957
4.534447241931792
3.696543831540398
2.585381857022964
1.5306172274357213
0.7897306782635233
0.30582131685358965
-0.08409246967269397
-0.37883573662928205
-0.5245288776989395
-0.54702067597467
-0.33586633096818486
0.2710765239948119
0.9518730449378195
1.4272220950637065
1.619241626611734
1.5943999389639123
1.492683299000534
1.438300144960708
1.3392690928511481
1.1868619821469444
1.0153200579842834
0.8758373388265811
0.8118867780575264
0.785366598001068
0.724101625085832
0.6470588235294118
0.5688410772869459
0.49498741130693513
0.4536964980544747
0.40199893186846725
0.3382162203402762
0.2845044632639048
0.23985656519417106
0.1935301747158007
0.14821087968261232
0.12135500114442664
0.13075455863279162
0.1508964675364309
0.11648737315938049
0.06965743495841917
0.04682993820096131
0.0011749446860456242
-0.09181353475242236
-0.14485389486533912
-0.18681620508125427
-0.19688715953307392
-0.15458915083543145
-0.0988632028686961
-0.04582284275577936
0.019974059662775615
0.08694590676737621
0.15660334172579538
0.22273594262607763
0.29323262378881515
0.3764858472571908
0.44614328221561
0.5382925154497596
0.6309452964065002
0.6823071641107805
0.6940566109712368
0.6943923094529639
0.6823071641107805
0.6591439688715953
0.6457160296025024
0.6165102616922256
0.6111390859845883
0.6443732356755931
0.6797894254978255
0.7088273441672388
0.7705958648050659
0.7779812314030671
0.7487754634927901
0.731486991683833
0.7262836652170594
0.7390402075226977
0.7521324483100633
0.744411383230335
0.7752956435492485
0.839917601281758
0.8924544136720836
0.9216601815823605
0.9082322423132677
0.9001754787518118
0.8986648355840391
0.8914473182269017
0.8825513084611275
0.8926222629129471
0.9102464332036315
0.9045395590142673
0.8766765850308994
0.8169222552834363
0.7699244678416112
0.7531395437552453
0.7306477454795147
0.6846570534828716
0.6648508430609598
0.6084534981307699
0.5550774395361256
0.5268787670710307
0.508415350576028
0.4993514915693904
0.4756847486076141
0.406530861371786
0.3543297474631876
0.33989471274891275
0.33385214007782105
0.3298237582970931
0.31270313572899977
0.31908140688181885
0.351644159609369
0.3785000381475548
0.38924238956282897
0.4016632333867399
0.4134126802471962
0.4134126802471962
0.4160982681010147
0.39595635919737543
0.3778286411841001
0.3952849622339208
0.4214694438086518
0.437247272449836
0.4688029297322041
0.44295414663920035
0.40871290150301365
0.39998474097810327
0.3946135652704661
0.3717860685130083
0.31606012054627297
0.23683527885862518
0.19957274738689249
0.20057984283207447
0.20057984283207447
0.18648050659952697
0.1445181963836118
0.12202639810788128
0.10087739375906005
0.06277561608300908
0.024673838406958113
0.009735255970092317
0.006546120393682764
-0.0028534370946822307
-0.006210421911955443
-0.03978027008468757
-0.0703288319218738
-0.057236591134508276
-0.03776607919432364
-0.05992217898832684
-0.06327916380560006
-0.09214923323414968
-0.10356298161287861
-0.06462195773250935
-0.01695277332722972
0.026352330815594724
0.03810177767605096
0.0011749446860456242
-0.021652552071412222
-0.027359426260776684
-0.04917982757305257
-0.0844281681544213
-0.13075455863279162
-0.14384679942015716
-0.13192950331883724
-0.11161974517433432
-0.09919890135042343
-0.10440222781719691
-0.12236209658960862
-0.14854657816433967
-0.17473105973907072
-0.2339818417639429
-0.2848401617456321
-0.29826810101472495
-0.29860379949645227
-0.3046463721675441
-0.2635233081559472
-0.2519417105363546
-0.2505989166094453
-0.2391851682307164
-0.22877851529716942
-0.22172884718089572
-0.240863660639353
-0.2915541313801785
-0.3184100099183642
-0.3304951552605478
-0.3499656672007324
-0.3561760891126879
-0.36943617914091703
-0.36775768673228043
-0.37010757610437167
-0.3909208819714656
-0.4265049210345616
-0.45168230716411073
-0.4587319752803845
-0.45134660868238347
-0.4258335240711071
-0.45571068894483857
-0.548027771419852
-0.5810940718699931
-0.5399710078583962
-0.4756847486076141
-0.3875638971541924
-0.3633936064698253
-0.3684290836957351
-0.33452353704127563
-0.27946898603799497
-0.23179980163271532
-0.20225833524071107
-0.19621576256961928
-0.17405966277561608
-0.147875181200885
-0.14569314106965742
-0.15324635690852215
-0.18513771267261767
-0.2056153200579843
-0.19974059662775617
-0.1693598840314336
-0.11665522240024415
-0.06126497291523613
-0.021652552071412222
0.01594567788204776
0.05354390783550774
0.05656519417105363
0.06831464103150987
0.09181353475242236
0.08761730373083085
0.07435721370260165
0.10691996643015184
0.09835965514610515
0.07905699244678416
0.09214923323414968
0.11061264972915236
0.11766231784542608
0.10457007705806058
0.05085831998168917
0.012588693064774548
0.014602883955138474
0.030716411078049892
0.05270466163118945
0.060593575951781484
0.07704280155642022
0.09584191653315023
0.10926985580224306
0.11464103150988021
0.13713282978561073
0.15895323109788664
0.15056076905470359
0.12303349355306323
0.06025787747005417
0.009231708247501335
0.0035248340581368735
-0.011581597619592583
-0.05992217898832684
-0.08174258030060273
-0.1468680857557031
-0.22844281681544215
-0.2861829556725414
-0.32126344701304643
-0.2767833981841764
-0.20360112916762035
-0.22575722896162354
-0.29323262378881515
-0.36440070191500723
-0.4127412832837415
-0.4382543678950179
-0.5013656824597543
-0.5779049362935836
-0.650415808346685
-0.7341725795376516
-0.816586556801709
-0.9072251468680858
-1.0824597543297474
-1.2875715266651406
-1.4114442664225222
-1.5349813076981766
-1.8045471885252156
-2.252368963149462
-2.841855497062638
-3.445609216449225
-3.8150453955901424
-4.030731670099947
-4.135637445639735
-4.075715266651407
-3.746059357595178
-3.367391470206759
-3.6312504768444342
-4.391775387197681
-4.795452811474784
-4.576745250629434
-3.69755092698558
-2.657892729076066
-1.987502861066605
-1.551094834821088
-1.2845502403295948
-1.1893797207598993
-0.7313191424429694
0.40434882124055843
1.6608682383459221
2.430960555428397
2.8559548332951854
3.292027161058976
4.212176699473564
5.404577706569009
5.477759975585565
5.47843137254902
5.479102769512474
5.479102769512474
4.075211718928816
1.707866025787747
0.11128404669260701
0.33989471274891275
1.5111467154955367
2.436331731136034
2.7800869764248106
1.8287174792095828
-0.04615854123750667
-1.2076752880140382
-0.34425879301136797
2.5074998092622263
4.995696955825132
5.47708857862211
5.47843137254902
5.47843137254902
5.479102769512474
5.479102769512474
5.479438467994202
5.479102769512474
5.479102769512474
5.479102769512474
5.436804760814831
5.277012283512627
5.027252613107499
3.9563744563973455
2.4537880521858546
1.1395284962233918
-0.22525368123903253
-1.4910048065918975
-2.538719768062867
-3.272724498359655
-4.175921263447012
-5.055283436331731
-5.487495231555656
-5.492530708781567
-5.493705653467612
-5.49404135194934
-5.396017395284963
-4.486442359044785
-3.4840466926070035
-2.3408255130846114
-1.203311207751583
-0.20729381246662087
0.8033264667734799
1.3506828412298773
1.5138323033493553
1.5850003814755473
1.4127870603494317
0.8726482032501717
0.8256504158083466
0.6138246738384069
0.17640955214770732
-0.20662241550316623
-0.672571908140688
-1.2143892576485846
-1.873029678797589
-2.9880521858548867
-4.066483558403906
-4.821972991531243
-5.331227588311589
-5.4529182879377425
-5.2090333409628435
-4.563317311360341
-3.9088731212329293
-3.490424963759823
-3.2129701686121916
-2.9011062790875104
-2.509010452429999
-1.9955596246280611
-1.3661249713893338
-0.8845654993514916
-0.5097581445029374
-0.19957274738689249
-0.0260166323338674
0.10759136339360646
0.3964599069199664
0.46645304036011287
0.46813153276874947
0.5503776607919432
0.6343022812237735
0.7194018463416494
0.7650568398565653
0.693385214007782
0.6913710231174182
0.728969253070878
0.7081559472037842
0.6698863202868696
0.5423208972304875
0.4130769817654688
0.31589227130540926
0.240863660639353
0.16835278858625158
0.13797207598992905
0.11766231784542608
0.14485389486533912
0.37245746547646297
0.6081177996490426
0.7420614938582436
0.8679484245059891
1.1005874723430227
1.5655298695353628
2.238941023880369
2.7740444037537193
3.062073701075761
3.0667734798199433
2.823056382085908
2.5085069047074082
2.1966430151827265
1.8414740215152205
1.5957427328908216
1.4404821850919354
1.2573586633096818
1.092530708781567
0.907560845349813
0.7699244678416112
0.6604867627985045
0.5342641336690318
0.39058518348973825
0.2546272983901732
0.09919890135042343
-0.029205767910276948
-0.10759136339360646
-0.2821545738918135
-0.44563973449301897
-0.5191577019913023
-0.5728694590676737
-0.5926756694895857
-0.49666590371557173
-0.5322499427786678
-0.6027466239414053
-0.6275883115892271
-0.6279240100709544
-0.640009155413138
-0.9575799191271839
-1.5155107957579919
-1.7662775616083013
-1.6679179064621956
-1.4963759822995346
-1.3617608911268786
-1.3174486915388723
-1.2451056687266344
-1.2551766231784542
-1.4250400549324787
-1.6022888532845043
-1.8743724727244981
-2.463859006637674
-3.18443579766537
-3.544472419317921
-3.490928511482414
-3.1545586327916375
-2.752895399404898
-2.4583199816891734
-2.230884260318913
-1.8555733577477684
-1.4910048065918975
-1.1485923552300297
-0.8447852292668038
-0.6594796673533226
-0.5278858625162127
-0.44127565423056375
-0.437247272449836
-0.36675059128709847
-0.21031509880216676
-0.05656519417105363
0.08039978637369342
0.17372396429388878
0.31404592965590905
0.48189517051956965
0.6249027237354086
0.72997634851606
0.8120546272983902
0.8525062943465325
0.8592202639810788
0.88540474555581
0.8045014114595254
0.7336690318150606
0.7682459754329747
0.7460898756389717
0.6410162508583199
0.4906233310444801
0.18547341115434499
0.004531929503318838
0.05790798809796292
0.19319447623407338
0.3341878385595483
0.4402685587853818
0.47350270847638665
0.54702067597467
0.6604867627985045
0.788387884336614
0.9209887846189058
0.965972381170367
0.9847714961470969
1.027740901808194
1.0744029907682917
1.2989852750438695
1.698970016021973
1.8602731364919507
1.7494926375219348
1.6994735637445637
1.7750057221332112
1.7447928587777524
1.5601586938277257
1.32835889219501
1.1506065461203936
1.0700389105058368
0.9248493171587702
0.7843595025558863
0.6980849927519646
0.6242313267719538
0.5497062638284886
0.44933241779201955
0.24757763027389945
-0.004196231021591517
-0.19705500877393756
-0.29558251316090633
-0.3130388342107271
-0.37514305333028153
-0.4771953917753872
-0.5580987258716716
-0.6024109254596779
-0.6292668039978637
-0.6541084916456854
-0.7051346608682383
-0.7481040665293354
-0.8431067368581672
-1.4675059128709849
-2.505149919890135
-3.6717021438925768
-4.8503395132372
-5.07727168688487
-3.7858396276798656
-2.5806820782787825
-1.801190203707942
-1.3894560158693827
-1.4114442664225222
-1.3406118867780574
-1.4268863965819791
-2.7105973907072554
-5.122926680399786
-5.491187914854658
-5.493369954985885
-5.493873502708476
-5.494209201190204
-5.494209201190204
0.4073701075761043
4.946684977492941
5.476417181658655
5.47843137254902
2.069748989089799
-3.173189898527504
-5.486152437628748
-5.492530708781567
-5.493537804226749
-5.494209201190204
-5.494209201190204
-5.49454489967193
-5.49454489967193
-5.49454489967193
-5.49454489967193
-5.494712748912795
-5.49454489967193
-5.494377050431067
-5.494712748912795
-4.817776760509651
-3.749919890135043
-2.285603112840467
-0.6225528343633172
1.040161745632105
2.1761654077973605
3.131227588311589
4.099046311131457
4.880552376592661
5.423376821545738
5.47843137254902
5.479102769512474
5.479774166475929
5.479102769512474
5.477759975585565
4.758693827725642
4.214862287327382
3.5958342870222015
2.7804226749065384
2.6706492713817043
2.520927748531319
2.315815976195926
2.4265964751659417
2.7512169069962615
3.303440909437705
3.9912870984969864
4.323292896925307
4.6438849469748975
5.11990539406424
5.477759975585565
5.479774166475929
5.479774166475929
5.479774166475929
5.479774166475929
5.479774166475929
5.479774166475929
5.479774166475929
5.479774166475929
5.479774166475929
5.479774166475929
5.479774166475929
5.479774166475929
5.479774166475929
5.479774166475929
5.479774166475929
5.413977264057373
4.993682764934768
4.139665827420463
3.1456626230258635
2.1039902342259857
1.1687342641336689
0.29088273441672385
-0.8635843442435341
-1.8003509575036236
-2.2916456855115586
-2.4670481422140838
-2.3755703059433886
-2.5085069047074082
-2.501289387350271
-2.147966735332265
-1.6988021667811093
-1.214724956130312
-0.546013580529488
0.23012130922407872
0.9864499885557335
1.8609445334554053
2.3430075532158385
2.5578545815213243
2.7844510566872662
2.7270466163118945
2.182543678950179
1.9992523079270614
1.4742198825055315
0.6839856565194171
-0.008224612802319372
-0.6529335469596399
-1.1866941329060807
-1.691081101701381
-2.675684748607614
-3.761333638513771
-4.681986724650949
-5.458793011367971
-5.492195010299839
-5.493705653467612
-5.49404135194934
-5.494209201190204
-5.494209201190204
-5.49454489967193
-5.494377050431067
-5.049912260624094
-4.627771419851987
-3.9651026169222554
-3.5706569008926525
-3.261310749980926
-2.6770275425345234
-1.984313725490196
-1.4265506981002516
-0.2861829556725414
0.5862973983367666
1.0722209506370641
1.5507591363393605
1.9112993057145038
2.142595559624628
2.138231479362173
1.482276646066987
0.6557869840543221
-0.0767071030746929
-0.7380331120775158
-1.3120775158312352
-2.2359197375448234
-3.1201495384145876
-3.8180666819256883
-4.562310215915159
-5.32669565880827
-5.4918593118181125
-5.493705653467612
-5.493873502708476
-5.494377050431067
-5.494377050431067
-5.494377050431067
-5.494377050431067
-5.063172350652323
-4.813748378728924
-3.9155870908674757
-3.1463340199893186
-2.6060273136491947
-1.9015640497444113
-0.989135576409552
0.14351110093842984
1.3003280689707788
1.9676966506446936
2.5182421606775005
3.0785229266803995
3.4138857099259936
3.573678187228199
3.1627832455939573
2.606866559853513
2.1442740520332646
1.6259555962462806
1.0297550926985581
0.4756847486076141
-0.10222018768596933
-0.8608987563897155
-1.5547875181200885
-2.6098878461890593
-3.7797970550087743
-4.658823529411764
-5.380239566643778
-5.492195010299839
-5.493705653467612
-5.493034256504157
-5.178149080643931
-4.674265659571221
-3.9432822156099796
-2.973785000381475
-1.9217059586480503
-1.2605477988860914
-0.5851224536507209
0.3069962615396353
1.322484168764782
2.4490882734416726
3.2326085297932403
4.00202944991226
4.895658808270389
5.474402990768292
5.47843137254902
5.47843137254902
5.479102769512474
5.479438467994202
5.152132448310064
4.4803997863736935
3.5951628900587473
2.8492408636606394
2.0861982146944382
1.0626535439078355
0.6222171358815898
0.06562905317769131
-0.6327916380560006
-1.1526207370107575
-1.5202105745021743
-1.6392156862745098
-1.5296101319905395
-1.572915236133364
-1.4352788586251621
-0.9857785915922788
-0.32780956740672923
0.5181506065461203
0.9743648432135501
1.4869764248111694
2.3334401464866104
3.311833371480888
4.339742122529946
5.433447775997558
5.4780956740672915
5.479102769512474
5.479102769512474
5.479438467994202
5.479102769512474
5.479438467994202
5.479102769512474
5.479774166475929
5.476752880140383
5.225986114290074
4.682825970855268
4.102067597467002
3.5068741893644617
2.9452506294346534
2.2718394750896467
0.9559014267185473
-0.7669031815060655
-2.3495536736095213
-3.549507896543831
-4.27847714961471
-4.960112916762035
-5.161867704280156
-4.696925307087816
-3.8800030518043793
-2.812649729152361
-1.5309529259174488
-0.24589913786526282
0.9035324635690852
2.144945448996719
3.1261921110856794
4.005050736247807
4.93191424429694
5.4750743877317465
5.47843137254902
5.479102769512474
5.479102769512474
5.479438467994202
5.479102769512474
5.479438467994202
5.479774166475929
5.479438467994202
4.905058365758754
3.91810482948043
2.939879453727016
1.8186465247577628
0.5735408560311284
-1.203311207751583
-2.944075684748608
-4.393286030365453
-5.480109864957656
-5.4923628595407035
-5.493537804226749
-5.493873502708476
-5.49404135194934
-5.494209201190204
-5.494377050431067
-5.494377050431067
-5.49454489967193
-5.494377050431067
-5.49454489967193
-5.49454489967193
-5.49454489967193
-5.49454489967193
-5.494880598153658
-5.494712748912795
-5.494712748912795
-4.887937743190661
-4.485938811322193
-3.9911192492561223
-3.381322957198443
-2.821042191195544
-2.221988250553139
-1.7310292210269322
-1.101930266269932
-0.17271686884870677
0.8222934309910734
1.6924238956282902
2.4383459220263983
3.11108567940795
3.7220569161516748
4.26387426565957
4.738216220340276
5.151461051346608
5.471717402914473
5.47843137254902
5.479102769512474
5.479438467994202
5.479438467994202
5.479774166475929
5.479774166475929
5.479774166475929
5.479774166475929
5.479774166475929
5.479774166475929
5.479774166475929
5.479774166475929
5.479774166475929
5.479774166475929
5.479774166475929
5.479774166475929
5.479774166475929
5.479774166475929
5.479774166475929
5.479774166475929
5.341466392004271
5.1635461966887926
4.978240634775311
4.788235294117646
4.5948729686427106
4.3994964522774085
4.202777141985199
4.005386434729533
3.8079957274738683
3.6119478141451133
3.417242694743267
3.224551766231784
3.0350499732967116
2.84789806973373
2.663935301747158
2.484000915541314
2.307927061875334
2.1355458915083543
1.9676966506446936
1.8045471885252156
1.6457618066681927
1.491676203555352
1.3426260776684211
1.1986114290074006
1.0603036545357443
0.9263599603265431
0.7974517433432516
0.6732433051041428
0.5535667963683528
0.4402685587853818
0.33351644159609367
0.2306248569466697
0.13344014648661018
0.04414435034714275
-0.03910887312123293
-0.11934081025406272
-0.17473105973907072
-0.11061264972915236
0.028030823224231328
0.20444037537193865
0.2546272983901732
-0.14418249790188448
-0.557427328908217
-0.7932555123216601
-0.8917830167086288
-0.7904020752269779
-0.72997634851606
-0.566323338673991
-0.05471885252155337
0.6222171358815898
1.2907606622415504
1.9958953231097882
2.629022659647516
3.1325703822384985
3.7965819790951403
4.278644998855572
4.6250858319981685
4.813076981765469
4.852018005645838
4.833890287632563
4.804348821240558
4.7657434958419165
4.72512397955291
4.684168764782178
4.6418707560845345
4.601419089036392
4.557274738689249
4.489463645380331
4.353170061799039
4.089646753643092
3.6515602349889376
3.0761730373083087
1.9972381170366977
1.0102845807583734
0.3563439383535515
-0.18950179293507285
-0.6322880903334095
-0.8280003051804379
-0.879362172884718
-0.8390783550774397
-0.519829098954757
-0.4249942778667888
-0.37883573662928205
-0.10423437857633323
0.11850156404974439
0.07905699244678416
0.7578393224994279
1.4567635614557106
1.9697108415350577
2.535698481727321
3.0822156099794
3.591805905241474
3.8993057145037002
3.755626764324407
3.3621881437399868
2.8707255664911875
2.3047379262989236
1.6927595941100175
0.6484016174563211
-0.2787975890745403
-0.868955519951171
-1.4188296330205232
-2.09408712901503
-2.7686732280460826
-3.527183947508964
-4.355352101930266
-4.91630426489662
-5.479942015716793
-5.492698558022431
-5.493705653467612
-5.49404135194934
-5.494377050431067
-5.49404135194934
-5.1350118257419695
-4.953902494850079
-4.652277409018082
-4.232318608377202
-3.6406500343327988
-2.9529716945143814
-2.604180971999695
-2.223163195239185
-1.6638895246814678
-1.1267719539177536
-0.6153353170061798
-0.581597619592584
-0.6285954070344091
-0.5691767757686733
-0.6544441901274127
-0.9201495384145875
-1.1945830472266727
-1.5403524834058135
-2.1284962233920806
-2.5469443808651864
-2.9697566186007474
-3.40498970016022
-3.790539406424048
-4.327321278706035
-5.097917143511101
-5.19694819562066
-5.3473411154345
-5.492530708781567
-5.49404135194934
-5.454093232623789
-4.983611810482948
-4.377004654001678
-4.130266269932097
-3.8982986190585187
-3.4964675364309143
-3.050827801937895
-2.543419546807049
-2.342671854734111
-1.9556115053025098
-1.2341954680704967
-0.516807812619211
0.0481727321278706
0.5701838712138552
0.9154497596704052
0.9465018692301824
0.9679865720607308
0.4996871900511177
-0.2566414892805371
-0.886747539482719
-1.5319600213626305
-2.4054474708171205
-2.6045166704814218
-2.8524299992370485
-3.3370107576104378
-3.786678873884184
-4.218219272144656
-4.511955443656061
-4.7148851758602275
-5.2362249179827565
-5.491691462577248
-5.493705653467612
-5.49404135194934
-5.085328450446326
-4.9468528267338066
-4.694575417715725
-4.157961394674601
-3.6849622339208055
-3.418417639429313
-3.1631189440756846
-2.94189364461738
-2.836820019836728
-2.5756466010528722
-2.6162661173418784
-2.853940642404822
-2.9502861066605632
-3.032364385442893
-3.343724727244984
-3.1404592965590905
-3.145830472266728
-3.4222781719691766
-3.6455176623178454
-3.81907377737087
-3.8442511635004193
-3.761333638513771
-4.034088654917221
-4.320271610589761
-4.446494239719233
-4.588662546730755
-4.771786068513008
-5.431769283588922
-5.493369954985885
-5.494209201190204
-5.494377050431067
-5.49454489967193
-5.494377050431067
-5.216922255283436
-4.9602807660028985
-4.491142137788968
-3.8993057145037002
-3.079530022125582
-2.1100328068970775
-1.1913939116502632
-0.39327077134355687
0.34895857175555045
1.0472114137483786
1.6820172426947428
2.243640802624552
2.7290608072022584
3.1473411154345
3.5065384908827344
3.8063172350652317
4.05976958876936
4.272602426184482
4.452201113908598
4.600244144350347
4.688197146562905
4.746608682383459
4.809719996948195
4.860410467689021
4.879545281147478
4.860746166170748
4.811062790875105
4.7395590142671855
4.649256122682536
4.549217975127794
4.461936369878691
4.381368734264133
4.286030365453575
4.163836118104829
4.0361028458075845
3.915419241626611
3.8032959487296862
3.687144274052033
3.5568932631418333
3.42059967956054
3.2802777141985198
3.143144884412909
3.0211184863050278
2.9022812237735556
2.7800869764248106
2.6511787594415197
2.497428854810406
2.338979171435111
2.208056763561456
2.0939192797741666
1.972396429388876
1.8461738002594035
1.7233081559472037
1.5984283207446401
1.4686808575570305
1.3355764095521476
1.220096131837949
1.120729381246662
1.0176699473563744
0.8959792477302203
0.7739528496223392
0.6813000686655984
0.614831769283589
0.556420233463035
0.49095902952620735
0.42264438849469754
0.3607080186160067
0.3026321812771801
0.25227740901808193
0.21132219424734877
0.17708094911116198
0.14015411612115664
0.09030289158464942
0.05085831998168917
0.04414435034714275
0.04414435034714275
0.032730601968413826
0.01695277332722972
-0.011917296101319903
-0.054551003280689715
-0.10087739375906005
-0.1406576638437476
-0.16029602502479592
-0.17607385366598
-0.20360112916762035
-0.24472419317921723
-0.28752574959945065
-0.30783550774395363
-0.3157244220645456
-0.3291523613336385
-0.34660868238345927
-0.36809338521400775
-0.4023346303501945
-0.43389028763256277
-0.4453040360112916
-0.44144350347142747
-0.437247272449836
-0.43791866941329055
-0.4526894026092928
-0.47115281910429546
-0.46678873884184025
-0.44463263904783695
-0.42919050888838023
-0.42449073014419775
-0.4110627908751049
-0.390249485008011
-0.3831998168917372
-0.3831998168917372
-0.3691004806591897
-0.3445944914930953
-0.32814526588845655
-0.3365377279316396
-0.36305790798809795
-0.36742198825055317
-0.35063706416418705
-0.3378805218585489
-0.34056610971236745
-0.35231555657282365
-0.3670862897688258
-0.37212176699473565
-0.373464560921645
-0.37950713359273663
-0.3868925001907378
-0.3956206607156481
-0.42449073014419775
-0.44748607614251923
-0.43456168459601735
-0.41676966506446933
-0.4077058060578317
-0.39931334401464863
-0.39125658045319295
-0.3848783093003738
-0.3833676661326009
-0.3835355153734646
-0.36943617914091703
-0.34392309452964065
-0.31706721599145493
-0.3002822919050888
-0.2996108949416343
-0.28970778973067823
-0.25999847409781035
-0.22340733958953235
-0.19621576256961928
-0.1935301747158007
-0.20427252613107502
-0.20662241550316623
-0.1992370489051652
-0.19789425497825588
-0.2002441443503471
-0.19420157167925536
-0.20494392309452963
-0.22072175173571373
-0.2178683146410315
-0.21635767147325857
-0.21988250553139543
-0.21971465629053175
-0.2264286259250782
-0.24187075608453498
-0.2593270771343557
-0.2613412680247196
-0.24119935912108034
-0.21434348058289462
-0.1935301747158007
-0.18480201419089035
-0.18345922026398107
-0.1733882658121614
-0.14485389486533912
-0.11699092088197145
-0.09970244907301441
-0.09147783627069504
-0.08375677119096665
-0.07301441977569237
-0.055390249485008015
-0.028702220187685965
-0.007049668116273747
-0.003860532539864194
-0.018631265735866327
-0.0323949034866865
-0.023834592202639806
-0.007217517357137408
-0.0008392462043183033
-0.0008392462043183033
-0.002014190890363927
-0.0055390249485008005
-0.020981155107957578
-0.041123064011596856
-0.04414435034714275
-0.041123064011596856
-0.03843747615777828
-0.041123064011596856
-0.05857938506141757
-0.07167162584878309
-0.06428625925078202
-0.044647898069733724
-0.028702220187685965
-0.025009536888685433
-0.03608758678568704
-0.041123064011596856
-0.03508049134050507
-0.0260166323338674
-0.019638361181048294
-0.010238803692683297
-0.0055390249485008005
0.0015106431677729458
0.024673838406958113
0.042465857938506144
0.04783703364614328
0.044815747310597384
0.03407339589532311
0.0213168535896849
0.00016784924086366064
-0.01695277332722972
-0.013931486991683832
-0.005874723430228122
-0.005874723430228122
-0.027023727779049357
-0.06462195773250935
-0.09282063019760432
-0.10255588616769665
-0.10356298161287861
-0.10356298161287861
-0.10926985580224306
-0.12504768444342718
-0.13209735255970093
-0.1257190814068818
-0.11900511177233539
-0.11900511177233539
-0.11799801632715344
-0.12639047837033646
-0.13344014648661018
-0.11732661936369877
-0.09013504234378575
-0.07536430914778362
-0.07335011825741969
-0.06781109330891888
-0.05522240024414436
-0.051529716945143814
-0.05958648050659952
-0.05589379720759898
-0.03860532539864195
-0.020309758144502935
-0.023834592202639806
-0.04917982757305257
-0.062272068360418105
-0.04716563668268864
-0.027359426260776684
-0.02265964751659419
-0.027023727779049357
-0.037262531471732654
-0.05522240024414436
-0.06730754558632791
-0.07284657053482871
-0.07469291218432898
-0.07704280155642022
-0.09298847943846798
-0.1062485694666972
-0.09819180590524147
-0.0775463492790112
-0.05673304341191729
-0.040451667048142216
-0.03440909437705043
-0.03994811932555123
-0.049851224536507206
-0.0481727321278706
-0.024505989166094453
0.0052033264667734795
0.02333104448004883
0.0260166323338674
0.02668802929732204
0.04213015945677882
0.06462195773250935
0.08039978637369342
0.08711375600823987
0.08509956511787593
0.07301441977569237
0.06697184710460058
0.07335011825741969
0.07570000762951096
0.07234302281223774
0.06361486228732739
0.035416189822232394
0.013092240787365528
0.011917296101319903
0.022323949034866862
0.019302662699320974
0.011245899137865261
0.004531929503318838
-0.0028534370946822307
-0.01292439154650187
-0.021820401312275882
-0.014938582436865796
0.008560311284046692
0.03172350652323186
0.036423285267414354
0.02937361715114061
0.029205767910276948
0.04548714427405204
0.07301441977569237
0.09987029831387809
0.11900511177233539
0.12068360418097199
0.12135500114442664
0.1287403677424277
0.1351186388952468
0.14283970397497517
0.14821087968261232
0.14586099031052108
0.15291065842679483
0.175066758220798
0.18916609445334553
0.19118028534370946
0.1901731898985275
0.17875944151979858
0.15291065842679483
0.12202639810788128
0.09013504234378575
0.08308537422751203
0.08409246967269397
0.08342107270923933
0.0750286106660563
0.06562905317769131
0.0750286106660563
0.10054169527733271
0.1240405889982452
0.1398184176394293
0.15207141222247655
0.1475394827191577
0.13881132219424736
0.15626764324406803
0.18614480811779963
0.20729381246662087
0.22240024414435033
0.21535057602807656
0.20796520943007551
0.22273594262607763
0.23448538948653389
0.23280689707789726
0.22877851529716942
0.2133363851377127
0.19050888838025481
0.16281376363775082
0.1364614328221561
0.13075455863279162
0.12974746318760969
0.12504768444342718
0.10188448920424201
0.06294346532387274
0.03474479285877775
0.028366521705958644
0.0260166323338674
0.019974059662775615
0.010574502174410621
-0.009231708247501335
-0.03172350652323186
-0.036423285267414354
-0.0323949034866865
-0.033401998931868467
-0.04011596856641489
-0.057236591134508276
-0.07217517357137408
-0.060090028229190504
-0.03978027008468757
-0.022995345998321506
-0.01326009002822919
-0.012252994583047227
-0.014435034714274816
-0.027695124742504008
-0.044480048828870064
-0.04011596856641489
-0.029709315632867935
-0.03508049134050507
-0.05941863126573587
-0.08409246967269397
-0.09819180590524147
-0.0971847104600595
-0.08577096208133059
-0.07939269092851148
-0.08677805752651253
-0.10926985580224306
-0.1270618753337911
-0.12588693064774548
-0.12454413672083621
-0.1304188601510643
-0.13780422674906534
-0.1492179751277943
-0.15156786449988555
-0.13008316166933698
-0.10775921263447012
-0.09483482108796826
-0.08543526359960325
-0.08274967574578469
-0.08845654993514916
-0.09617761501487754
-0.0988632028686961
-0.0800640878919661
-0.05589379720759898
-0.03810177767605096
-0.03608758678568704
-0.04649423971923399
-0.041123064011596856
-0.02333104448004883
-0.017959868772411687
-0.01913481345845731
-0.016617074845502403
-0.022995345998321506
-0.033066300450141146
-0.029709315632867935
-0.01292439154650187
-0.005874723430228122
-0.01896696421759365
-0.051529716945143814
-0.06865033951323721
-0.05253681239032577
-0.036423285267414354
-0.035751888303959714
-0.03558403906309605
-0.028366521705958644
-0.017624170290684367
-0.008896009765774012
-0.007553215838864729
-0.0052033264667734795
0.0008392462043183033
0.014267185473411156
0.022995345998321506
0.022491798275730522
0.028030823224231328
0.05656519417105363
0.09349202716105898
0.11934081025406272
0.13109025711451894
0.12739757381551842
0.12068360418097199
0.13276874952315554
0.1475394827191577
0.15291065842679483
0.1552605477988861
0.14183260852979326
0.12672617685206378
0.13310444800488286
0.139482719157702
0.14048981460288396
0.1461966887922484
0.14518959334706644
0.12471198596169988
0.09382772564278628
0.0775463492790112
0.0797283894102388
0.08543526359960325
0.09214923323414968
0.08677805752651253
0.0750286106660563
0.07771419851987486
0.09970244907301441
0.12135500114442664
0.13461509117265583
0.13746852826733807
0.13008316166933698
0.13377584496833753
0.22105745021744103
0.9961852445258259
2.535698481727321
3.6978866254673073
3.916090638590066
3.6153047989623865
3.2554360265506976
2.9187304493781947
2.5638971541924165
2.2026855878538183
1.8569161516746775
1.5363241016250857
1.222110322728313
0.916960402838178
0.6524299992370488
0.42532997634851605
0.21770046540016783
0.01829556725413901
-0.18883039597161821
-0.37917143511100937
-0.519829098954757
-0.6371557183184557
-0.7454184786755168
-0.8447852292668038
-0.9485160601205462
-1.0364690623331045
-1.0972304875257497
-1.148424505989166
-1.1925688563363088
-1.226138704509041
-1.2628976882581824
-1.2852216372930494
-1.2731364919508659
-1.2540016784924086
-1.244937819485771
-1.2404058899824522
-1.224124513618677
-1.1962615396353093
-1.179140917067216
-1.163698786907759
-1.1281147478446631
-1.0770885786221103
-1.0289158464942398
-0.989303425650416
-0.964461738002594
-0.9347524223697262
-0.886747539482719
-0.8367284657053483
-0.7880521858548867
-0.7400473029678797
-0.710673685816739
-0.6806286717021438
-0.6332951857785916
-0.5842832074464026
-0.5455100328068971
-0.5201647974364842
-0.5146257724879835
-0.5043869687953002
-0.4688029297322041
-0.42465857938506135
-0.39629205767910275
-0.37682154573891813
-0.3550011444266422
-0.31941710536354617
-0.29390402075226973
-0.2870222018768597
-0.2613412680247196
-0.22105745021744103
-0.1884946974898909
-0.16868848706797895
-0.16398870832379644
-0.14720378423743039
-0.10843060959792476
-0.07637140459296558
-0.05656519417105363
-0.040451667048142216
-0.03105210955977722
-0.01359578850995651
0.021652552071412222
0.05421530479896238
0.07301441977569237
0.08342107270923933
0.08509956511787593
0.09852750438696878
0.13344014648661018
0.16600289921416037
0.18782330052643625
0.2076295109483482
0.22407873655298696
0.22592507820248725
0.2106507972838941
0.19839780270084686
0.2093080033569848
0.23280689707789726
0.2519417105363546
0.24992751964599072
0.2187075608453498
0.1982299534599832
0.21383993286030367
0.23683527885862518
0.24740978103303574
0.24757763027389945
0.2307927061875334
0.2187075608453498
0.22407873655298696
0.23952086671244371
0.24690623331044484
0.23985656519417106
0.213168535896849
0.19319447623407338
0.2025940337224384
0.21232928969253068
0.20796520943007551
0.21132219424734877
0.22340733958953235
0.23347829404135198
0.22944991226062406
0.22407873655298696
0.24657053482871744
0.27309071488517583
0.27644769970244903
0.2583199816891737
0.22710002288853282
0.2140077821011673
0.22676432440680552
0.22877851529716942
0.21702906843671319
0.20863660639353018
0.18782330052643625
0.17624170290684368
0.1874876020447089
0.20057984283207447
0.21602197299153122
0.23045700770580602
0.20628671702143891
0.17708094911116198
0.1710383764400702
0.16549935149156939
0.1508964675364309
0.13780422674906534
0.12420843823910888
0.1032272831311513
0.0767071030746929
0.05354390783550774
0.0528725108720531
0.0528725108720531
0.044815747310597384
0.024338139925230793
-0.01628137636377508
-0.041962310215915156
-0.036423285267414354
-0.024673838406958113
-0.021988250553139542
-0.03373769741359579
-0.06495765621423667
-0.08711375600823987
-0.08946364538033112
-0.09147783627069504
-0.10557717250324253
-0.12907606622415504
-0.16163881895170518
-0.17875944151979858
-0.1733882658121614
-0.16835278858625158
-0.17540245670252536
-0.18983749141680015
-0.2076295109483482
-0.21031509880216676
-0.21568627450980396
-0.23045700770580602
-0.21853971160448613
-0.18614480811779963
-0.16163881895170518
-0.16197451743343252
-0.18950179293507285
-0.20225833524071107
-0.18480201419089035
-0.15794613565270463
-0.1398184176394293
-0.1359578850995651
-0.14485389486533912
-0.1411612115663386
-0.11396963454642556
-0.09147783627069504
-0.08274967574578469
-0.08375677119096665
-0.09349202716105898
-0.08493171587701229
-0.05387960631723506
-0.028366521705958644
-0.014267185473411156
-0.011581597619592583
-0.0260166323338674
-0.05387960631723506
-0.1096055542839704
-0.17674525062943464
-0.20964370183871214
-0.23263904783703362
-0.2640268558785382
-0.29558251316090633
-0.33183794918745707
-0.3563439383535515
-0.34425879301136797
-0.31992065308613715
-0.3022964827954528
-0.28970778973067823
-0.277454795147631
-0.24354924849317158
-0.19504081788357364
-0.15626764324406803
-0.13243305104142825
-0.11833371480888075
-0.10507362478065153
-0.08174258030060273
-0.04615854123750667
-0.01292439154650187
0.01829556725413901
0.05337605859464408
0.08644235904478523
0.11648737315938049
0.12974746318760969
0.13075455863279162
0.15324635690852215
0.18883039597161821
0.21568627450980396
0.22743572137026014
0.21702906843671319
0.21300068665598534
0.23179980163271532
0.2542915999084459
0.26973373006790263
0.27476920729381243
0.2630197604333562
0.2532845044632639
0.2630197604333562
0.27476920729381243
0.27644769970244903
0.26839093614099335
0.24824902723735406
0.22676432440680552
0.22256809338521402
0.22928206301976042
0.23884946974898907
0.24153505760280766
0.22743572137026014
0.2099794003204395
0.18312352178225372
0.15492484931715875
0.15207141222247655
0.16466010528725106
0.16331731136034178
0.147875181200885
0.11665522240024415
0.09416342412451362
0.09953459983215075
0.10691996643015184
0.1002059967956054
0.07905699244678416
0.05337605859464408
0.041794460975051496
0.04599069199664301
0.05085831998168917
0.049851224536507206
0.04145876249332417
0.0260166323338674
0.01359578850995651
0.0157778286411841
0.0260166323338674
0.02937361715114061
0.028702220187685965
0.025345235370412753
0.019638361181048294
0.0011749446860456242
-0.013931486991683832
-0.005874723430228122
0.004867627985046159
0.009903105210955977
0.014435034714274816
-0.006210421911955443
-0.03172350652323186
-0.028366521705958644
-0.013931486991683832
-0.010238803692683297
-0.017792019531548024
-0.03105210955977722
-0.03172350652323186
-0.01628137636377508
0.0028534370946822307
0.009231708247501335
0.004531929503318838
-0.010574502174410621
-0.020981155107957578
-0.01896696421759365
-0.010910200656137941
0.0016784924086366065
0.008560311284046692
0.008560311284046692
0.0055390249485008005
-0.0025177386129549098
-0.0050354772259098195
0.009735255970092317
0.024673838406958113
0.03138780804150454
0.03440909437705043
0.013931486991683832
-0.014267185473411156
-0.009903105210955977
0.01695277332722972
0.03407339589532311
0.037262531471732654
0.02937361715114061
0.028702220187685965
0.0387731746395056
0.04414435034714275
0.04414435034714275
0.03810177767605096
0.018631265735866327
0.010238803692683297
0.0213168535896849
0.03407339589532311
0.033066300450141146
0.019974059662775615
0.0008392462043183033
-0.009063859006637675
-0.028366521705958644
-0.05354390783550774
-0.053208209353780414
-0.04414435034714275
-0.04800488288700694
-0.057572289616235596
-0.0797283894102388
-0.09365987640192262
-0.08677805752651253
-0.07737850003814756
-0.08107118333714809
-0.08946364538033112
-0.11161974517433432
-0.12857251850156404
-0.12269779507133592
-0.11329823758297093
-0.11531242847333485
-0.12303349355306323
-0.14183260852979326
-0.15542839703974973
-0.14938582436865797
-0.13881132219424736
-0.13411154345006485
-0.14132906080720226
-0.15190356298161287
-0.1576104371709773
-0.16533150225070573
-0.17557030594338902
-0.1733882658121614
-0.17137407492179751
-0.1774166475928893
-0.19084458686198216
-0.2158541237506676
-0.22575722896162354
-0.20360112916762035
-0.17943083848325322
-0.17070267795834287
-0.1708705271992065
-0.18547341115434499
-0.19386587319752804
-0.17204547188525215
-0.14283970397497517
-0.12521553368429084
-0.11699092088197145
-0.12034790569924468
-0.10490577553978789
-0.06529335469596398
-0.03776607919432364
-0.03105210955977722
-0.021988250553139542
-0.012588693064774548
-0.010910200656137941
-0.0157778286411841
-0.017624170290684367
-0.004867627985046159
0.006210421911955443
0.009903105210955977
0.0025177386129549098
-0.02265964751659419
-0.035751888303959714
-0.028702220187685965
-0.027023727779049357
-0.04011596856641489
-0.05471885252155337
-0.07939269092851148
-0.1002059967956054
-0.09214923323414968
-0.07435721370260165
-0.07133592736705577
-0.08207827878233005
-0.09231708247501334
-0.07956054016937514
-0.04917982757305257
-0.043472953383688104
-0.05555809872587166
-0.0528725108720531
-0.037094682230869
-0.027359426260776684
-0.040451667048142216
-0.049515526054779886
-0.027023727779049357
0.0011749446860456242
0.012588693064774548
0.010070954451819639
-0.014267185473411156
-0.03407339589532311
-0.019302662699320974
0.0025177386129549098
0.00788891432059205
0.0011749446860456242
-0.024673838406958113
-0.037094682230869
-0.028702220187685965
-0.020645456626230255
-0.0260166323338674
-0.042801556420233464
-0.06764324406805522
-0.0797283894102388
-0.07133592736705577
-0.059250782024872196
-0.04213015945677882
-0.020309758144502935
-0.013931486991683832
-0.01326009002822919
-0.014602883955138474
-0.01560997940032044
0.0010070954451819635
0.027359426260776684
0.049515526054779886
0.059250782024872196
0.05740444037537193
0.06529335469596398
0.09097428854810408
0.11229114213778896
0.11665522240024415
0.11514457923247119
0.10826276035706112
0.1065842679484245
0.11934081025406272
0.13411154345006485
0.13881132219424736
0.13008316166933698
0.11161974517433432
0.09752040894178682
0.09047074082551307
0.0844281681544213
0.07838559548332952
0.07570000762951096
0.07301441977569237
0.06630045014114595
0.042465857938506144
0.01594567788204776
0.02333104448004883
0.050186923018234526
0.07234302281223774
0.08039978637369342
0.06428625925078202
0.05824368657969024
0.0788891432059205
0.10188448920424201
0.12185854886701762
0.13612573434042877
0.12941176470588234
0.1347829404135195
0.16063172350652322
0.18564126039520865
0.20057984283207447
0.19050888838025481
0.15895323109788664
0.13679713130388343
0.13310444800488286
0.14854657816433967
0.16163881895170518
0.14552529182879376
0.12118715190356297
0.11329823758297093
0.09114213778896772
0.050522621499961846
0.022323949034866862
0.013931486991683832
0.007553215838864729
-0.0008392462043183033
-0.01896696421759365
-0.024338139925230793
-0.010910200656137941
0.005874723430228122
0.014602883955138474
0.017959868772411687
0.008896009765774012
0.006546120393682764
0.017288471808957043
0.03373769741359579
0.049515526054779886
0.05522240024414436
0.049851224536507206
0.0528725108720531
0.08241397726405737
0.11329823758297093
0.12739757381551842
0.12605477988860914
0.11094834821087966
0.09013504234378575
0.06596475165941862
0.048508430609597926
0.05992217898832684
0.07637140459296558
0.07771419851987486
0.06495765621423667
0.02937361715114061
-0.006881818875410085
-0.019806210421911954
-0.022995345998321506
-0.028366521705958644
-0.04515144579232471
-0.07402151522087433
-0.08258182650492102
-0.06596475165941862
-0.049851224536507206
-0.037094682230869
-0.02652018005645838
-0.03373769741359579
-0.03373769741359579
-0.01359578850995651
0.004364080262455177
0.021149004348821242
0.035416189822232394
0.043472953383688104
0.05656519417105363
0.06160067139696345
0.058915083543144876
0.0703288319218738
0.09198138399328602
0.10994125276569772
0.10289158464942397
0.06109712367437248
0.014602883955138474
0.0011749446860456242
0.009231708247501335
0.011917296101319903
0.002014190890363927
-0.026352330815594724
-0.05253681239032577
-0.061936369878690785
-0.06898603799496453
-0.08845654993514916
-0.11296253910124363
-0.14988937209124895
-0.16633859769588769
-0.13780422674906534
-0.10188448920424201
-0.08627450980392155
-0.08476386663614863
-0.0767071030746929
-0.0639505607690547
-0.0694895857175555
-0.08342107270923933
-0.05824368657969024
-0.006210421911955443
0.035751888303959714
0.05421530479896238
0.051865415426871134
0.05673304341191729
0.08140688181887541
0.10154879072251469
0.10121309224078735
0.08845654993514916
0.06428625925078202
0.04145876249332417
0.043808651865415424
0.05488670176241703
0.05085831998168917
0.037094682230869
0.00788891432059205
-0.020981155107957578
-0.03810177767605096
-0.05387960631723506
-0.07603570611123828
-0.09970244907301441
-0.11178759441519796
-0.10759136339360646
-0.11430533302815289
-0.13075455863279162
-0.11380178530556191
-0.07939269092851148
-0.06562905317769131
-0.06361486228732739
-0.06797894254978255
-0.05857938506141757
-0.025680933852140077
0.007217517357137408
0.027359426260776684
0.03205920500495917
0.01829556725413901
0.012588693064774548
0.030045014114595252
0.0481727321278706
0.05555809872587166
0.05471885252155337
0.030045014114595252
0.004531929503318838
-0.015106431677729458
-0.04531929503318838
-0.08476386663614863
-0.12370489051651787
-0.15660334172579538
-0.1901731898985275
-0.23649958037689783
-0.28148317692835884
-0.30363927672236213
-0.30867475394827193
-0.3083390554665446
-0.30934615091172657
-0.3210955977721828
-0.31169604028381775
-0.25949492637521937
-0.2002441443503471
-0.16063172350652322
-0.14015411612115664
-0.13780422674906534
-0.11883726253147174
-0.06596475165941862
-0.008224612802319372
0.037094682230869
0.074189364461738
0.09584191653315023
0.1240405889982452
0.16365300984206912
0.19050888838025481
0.20225833524071107
0.20527962157625693
0.19386587319752804
0.18513771267261767
0.17372396429388878
0.1525749599450675
0.15828183413443195
0.1807736324101625
0.17640955214770732
0.14821087968261232
0.09382772564278628
0.04011596856641489
0.021988250553139542
0.030045014114595252
0.032730601968413826
0.021652552071412222
-0.0055390249485008005
-0.02400244144350347
-0.00788891432059205
0.017288471808957043
0.018631265735866327
0.0011749446860456242
-0.025680933852140077
-0.029709315632867935
0.0052033264667734795
0.04145876249332417
0.05354390783550774
0.061936369878690785
0.0780498970016022
0.0971847104600595
0.09903105210955977
0.0891279468986038
0.09449912260624094
0.10121309224078735
0.09114213778896772
0.07637140459296558
0.053208209353780414
0.044815747310597384
0.062272068360418105
0.06764324406805522
0.04414435034714275
0.005874723430228122
-0.04582284275577936
-0.08711375600823987
-0.09416342412451362
-0.09365987640192262
-0.10557717250324253
-0.11380178530556191
-0.1257190814068818
-0.12118715190356297
-0.09349202716105898
-0.07133592736705577
-0.054551003280689715
-0.03508049134050507
-0.035248340581368734
-0.035751888303959714
-0.029037918669413288
-0.007217517357137408
0.03944457160296025
0.08409246967269397
0.11396963454642556
0.13579003585870145
0.13209735255970093
0.12034790569924468
0.13444724193179217
0.14854657816433967
0.14183260852979326
0.12471198596169988
0.0971847104600595
0.07570000762951096
0.0750286106660563
0.07133592736705577
0.057572289616235596
0.022995345998321506
-0.029709315632867935
-0.06965743495841917
-0.08778515297169451
-0.1096055542839704
-0.13579003585870145
-0.1411612115663386
-0.13109025711451894
-0.1257190814068818
-0.1364614328221561
-0.1364614328221561
-0.10926985580224306
-0.08140688181887541
-0.06865033951323721
-0.061936369878690785
-0.06294346532387274
-0.04515144579232471
0.006210421911955443
0.056900892652780956
0.08979934386205844
0.11363393606469825
0.11732661936369877
0.11531242847333485
0.12471198596169988
0.13008316166933698
0.12034790569924468
0.09752040894178682
0.06529335469596398
0.04548714427405204
0.0481727321278706
0.05522240024414436
0.04213015945677882
0.007049668116273747
-0.036423285267414354
-0.07737850003814756
-0.12236209658960862
-0.1641565575646601
-0.1700312809948882
-0.15996032654306858
