GYRO Sensor 0 X,GYRO Sensor 0 Y,GYRO Sensor 0 Z
0.0,0.0,0.0
0.0,0.0,0.0
0.0,0.0,0.0
0.0,0.0,0.0
0.0,0.0,0.0
0.0,0.0,0.0
0.0,0.0,0.0
0.0,0.0,0.0
0.0,0.0,0.0
0.0,0.0,0.0
0.0,0.0,0.0
0.0,0.0,0.0
0.0,0.0,0.0
0.0,0.0,0.0
0.0,0.0,0.0
0.0,0.0,0.0
0.0,0.0,0.0
0.0,0.0,0.0
0.0,0.0,0.0
0.0,0.0,0.0
0.0,0.0,0.0
0.0,0.0,0.0
0.0,0.0,0.0
0.0,0.0,0.0
0.0,0.0,0.0
0.0,0.0,0.0
0.0,0.0,0.0
0.0,0.0,0.0
0.0,0.0,0.0
0.0,0.0,0.0
0.0,0.0,0.0
0.0,0.0,0.0
0.0,0.0,0.0
0.0,0.0,0.0
0.0,0.0,0.0
0.0,0.0,0.0
0.0,0.0,0.0
0.0,0.0,0.0
0.0,0.0,0.0
0.0,0.0,0.0
0.0,0.0,0.0
0.0,0.0,0.0
0.0,0.0,0.0
-3.9024391174316406,3.9024391174316406,0.0
-7.804878234863281,11.707317352294922,0.0
-7.804878234863281,11.707317352294922,0.0
-7.804878234863281,11.707317352294922,0.0
-7.804878234863281,11.707317352294922,0.0
-7.804878234863281,11.707317352294922,0.0
-7.804878234863281,11.707317352294922,0.0
-7.804878234863281,11.707317352294922,0.0
-7.804878234863281,7.804878234863281,0.0
-7.804878234863281,11.707317352294922,0.0
-7.804878234863281,15.609756469726562,0.0
-7.804878234863281,19.512195587158203,0.0
-7.804878234863281,19.512195587158203,0.0
-7.804878234863281,19.512195587158203,0.0
-7.804878234863281,19.512195587158203,0.0
-3.9024391174316406,15.609756469726562,0.0
-3.9024391174316406,11.707317352294922,-3.9024391174316406
-3.9024391174316406,7.804878234863281,-3.9024391174316406
-3.9024391174316406,3.9024391174316406,-3.9024391174316406
-7.804878234863281,7.804878234863281,-3.9024391174316406
-7.804878234863281,11.707317352294922,-3.9024391174316406
-3.9024391174316406,15.609756469726562,0.0
-3.9024391174316406,11.707317352294922,0.0
-3.9024391174316406,7.804878234863281,0.0
-3.9024391174316406,7.804878234863281,0.0
-3.9024391174316406,3.9024391174316406,0.0
-3.9024391174316406,7.804878234863281,0.0
-3.9024391174316406,7.804878234863281,0.0
-3.9024391174316406,11.707317352294922,0.0
-3.9024391174316406,11.707317352294922,0.0
-3.9024391174316406,11.707317352294922,0.0
-3.9024391174316406,7.804878234863281,3.9024391174316406
-3.9024391174316406,3.9024391174316406,0.0
-3.9024391174316406,3.9024391174316406,0.0
-3.9024391174316406,3.9024391174316406,0.0
-3.9024391174316406,7.804878234863281,0.0
-7.804878234863281,15.609756469726562,0.0
-7.804878234863281,15.609756469726562,0.0
-7.804878234863281,15.609756469726562,3.9024391174316406
-3.9024391174316406,15.609756469726562,3.9024391174316406
-3.9024391174316406,11.707317352294922,0.0
-3.9024391174316406,11.707317352294922,0.0
-3.9024391174316406,11.707317352294922,0.0
-3.9024391174316406,11.707317352294922,0.0
-3.9024391174316406,15.609756469726562,0.0
-3.9024391174316406,15.609756469726562,0.0
-3.9024391174316406,15.609756469726562,0.0
-3.9024391174316406,11.707317352294922,0.0
-3.9024391174316406,11.707317352294922,0.0
-3.9024391174316406,7.804878234863281,0.0
-7.804878234863281,7.804878234863281,0.0
-7.804878234863281,7.804878234863281,0.0
-7.804878234863281,11.707317352294922,0.0
-11.707317352294922,19.512195587158203,0.0
-11.707317352294922,23.414634704589844,0.0
-11.707317352294922,23.414634704589844,0.0
-7.804878234863281,23.414634704589844,3.9024391174316406
-7.804878234863281,19.512195587158203,0.0
-7.804878234863281,15.609756469726562,0.0
-7.804878234863281,15.609756469726562,0.0
-7.804878234863281,11.707317352294922,0.0
-7.804878234863281,11.707317352294922,0.0
-7.804878234863281,11.707317352294922,0.0
-7.804878234863281,15.609756469726562,0.0
-7.804878234863281,15.609756469726562,0.0
-7.804878234863281,11.707317352294922,0.0
-7.804878234863281,11.707317352294922,0.0
-7.804878234863281,7.804878234863281,0.0
-7.804878234863281,7.804878234863281,-3.9024391174316406
-7.804878234863281,7.804878234863281,-3.9024391174316406
-7.804878234863281,7.804878234863281,-3.9024391174316406
-7.804878234863281,7.804878234863281,-3.9024391174316406
-7.804878234863281,7.804878234863281,0.0
-11.707317352294922,7.804878234863281,0.0
-11.707317352294922,7.804878234863281,-3.9024391174316406
-7.804878234863281,0.0,-7.804878234863281
-7.804878234863281,-11.707317352294922,-7.804878234863281
-7.804878234863281,-23.414634704589844,-11.707317352294922
-3.9024391174316406,-35.121952056884766,-15.609756469726562
-3.9024391174316406,-46.82926940917969,-19.512195587158203
-3.9024391174316406,-62.43902587890625,-23.414634704589844
3.9024391174316406,-85.8536605834961,-35.121952056884766
7.804878234863281,-109.26829528808594,-50.73170852661133
11.707317352294922,-117.07317352294922,-54.63414764404297
15.609756469726562,-132.68292236328125,-62.43902587890625
23.414634704589844,-148.2926788330078,-70.24390411376953
19.512195587158203,-152.19512939453125,-66.34146118164062
15.609756469726562,-148.2926788330078,-66.34146118164062
11.707317352294922,-140.48780822753906,-66.34146118164062
11.707317352294922,-140.48780822753906,-70.24390411376953
7.804878234863281,-148.2926788330078,-74.1463394165039
7.804878234863281,-160.0,-81.95121765136719
11.707317352294922,-191.21951293945312,-101.46341705322266
11.707317352294922,-210.73170471191406,-117.07317352294922
7.804878234863281,-245.85366821289062,-144.39024353027344
7.804878234863281,-265.3658447265625,-160.0
11.707317352294922,-269.268310546875,-167.8048858642578
19.512195587158203,-249.756103515625,-160.0
31.219512939453125,-206.8292694091797,-120.9756088256836
23.414634704589844,-140.48780822753906,-93.65853881835938
-7.804878234863281,-74.1463394165039,-74.1463394165039
-15.609756469726562,-42.92683029174805,-66.34146118164062
-15.609756469726562,-42.92683029174805,-66.34146118164062
-15.609756469726562,-42.92683029174805,-81.95121765136719
-19.512195587158203,-39.024391174316406,-85.8536605834961
-15.609756469726562,-35.121952056884766,-85.8536605834961
-15.609756469726562,-31.219512939453125,-78.04878234863281
-15.609756469726562,-27.317073822021484,-66.34146118164062
-19.512195587158203,-27.317073822021484,-62.43902587890625
-23.414634704589844,-23.414634704589844,-58.53658676147461
-27.317073822021484,-15.609756469726562,-42.92683029174805
-23.414634704589844,-3.9024391174316406,-27.317073822021484
-27.317073822021484,-3.9024391174316406,-23.414634704589844
-42.92683029174805,3.9024391174316406,-19.512195587158203
-58.53658676147461,23.414634704589844,-7.804878234863281
-66.34146118164062,39.024391174316406,0.0
-85.8536605834961,66.34146118164062,11.707317352294922
-117.07317352294922,85.8536605834961,31.219512939453125
-117.07317352294922,54.63414764404297,35.121952056884766
-101.46341705322266,-7.804878234863281,3.9024391174316406
-93.65853881835938,-70.24390411376953,-46.82926940917969
-89.75609588623047,-105.36585235595703,-89.75609588623047
-74.1463394165039,-113.17073059082031,-105.36585235595703
-46.82926940917969,-101.46341705322266,-101.46341705322266
-15.609756469726562,-78.04878234863281,-81.95121765136719
3.9024391174316406,-54.63414764404297,-54.63414764404297
11.707317352294922,-46.82926940917969,-42.92683029174805
31.219512939453125,-62.43902587890625,-39.024391174316406
54.63414764404297,-97.56097412109375,-50.73170852661133
58.53658676147461,-113.17073059082031,-78.04878234863281
35.121952056884766,-117.07317352294922,-89.75609588623047
11.707317352294922,-120.9756088256836,-85.8536605834961
7.804878234863281,-117.07317352294922,-70.24390411376953
3.9024391174316406,-132.68292236328125,-70.24390411376953
-3.9024391174316406,-167.8048858642578,-93.65853881835938
0.0,-199.02439880371094,-117.07317352294922
11.707317352294922,-214.6341552734375,-128.78048706054688
15.609756469726562,-214.6341552734375,-124.8780517578125
15.609756469726562,-199.02439880371094,-109.26829528808594
15.609756469726562,-183.41464233398438,-89.75609588623047
23.414634704589844,-175.60975646972656,-74.1463394165039
39.024391174316406,-179.51219177246094,-58.53658676147461
58.53658676147461,-187.31707763671875,-39.024391174316406
66.34146118164062,-195.1219482421875,-31.219512939453125
66.34146118164062,-206.8292694091797,-27.317073822021484
66.34146118164062,-226.34146118164062,-39.024391174316406
70.24390411376953,-249.756103515625,-50.73170852661133
66.34146118164062,-269.268310546875,-70.24390411376953
62.43902587890625,-280.9756164550781,-81.95121765136719
54.63414764404297,-292.68292236328125,-93.65853881835938
23.414634704589844,-300.4878234863281,-93.65853881835938
7.804878234863281,-277.07318115234375,-70.24390411376953
7.804878234863281,-253.65853881835938,-42.92683029174805
7.804878234863281,-234.14634704589844,-27.317073822021484
0.0,-226.34146118164062,-27.317073822021484
-19.512195587158203,-222.43902587890625,-23.414634704589844
-35.121952056884766,-199.02439880371094,-27.317073822021484
-42.92683029174805,-183.41464233398438,-23.414634704589844
-39.024391174316406,-179.51219177246094,-15.609756469726562
-39.024391174316406,-175.60975646972656,-11.707317352294922
-46.82926940917969,-152.19512939453125,-11.707317352294922
-54.63414764404297,-113.17073059082031,-7.804878234863281
-58.53658676147461,-81.95121765136719,-7.804878234863281
-54.63414764404297,-66.34146118164062,-3.9024391174316406
-50.73170852661133,-50.73170852661133,-3.9024391174316406
-50.73170852661133,-39.024391174316406,-7.804878234863281
-42.92683029174805,-27.317073822021484,-3.9024391174316406
-39.024391174316406,-15.609756469726562,-3.9024391174316406
-35.121952056884766,-3.9024391174316406,0.0
-31.219512939453125,3.9024391174316406,0.0
-27.317073822021484,15.609756469726562,0.0
-27.317073822021484,19.512195587158203,3.9024391174316406
-27.317073822021484,19.512195587158203,3.9024391174316406
-27.317073822021484,19.512195587158203,3.9024391174316406
-27.317073822021484,19.512195587158203,3.9024391174316406
-27.317073822021484,19.512195587158203,7.804878234863281
-27.317073822021484,19.512195587158203,11.707317352294922
-31.219512939453125,23.414634704589844,11.707317352294922
-31.219512939453125,23.414634704589844,11.707317352294922
-35.121952056884766,15.609756469726562,11.707317352294922
-39.024391174316406,7.804878234863281,7.804878234863281
-42.92683029174805,-11.707317352294922,3.9024391174316406
-46.82926940917969,-31.219512939453125,-3.9024391174316406
-50.73170852661133,-54.63414764404297,-11.707317352294922
-39.024391174316406,-85.8536605834961,-19.512195587158203
-27.317073822021484,-120.9756088256836,-23.414634704589844
-3.9024391174316406,-156.09756469726562,-39.024391174316406
15.609756469726562,-167.8048858642578,-62.43902587890625
23.414634704589844,-140.48780822753906,-39.024391174316406
15.609756469726562,-85.8536605834961,-15.609756469726562
7.804878234863281,-46.82926940917969,-11.707317352294922
7.804878234863281,-39.024391174316406,-11.707317352294922
15.609756469726562,-19.512195587158203,-7.804878234863281
19.512195587158203,-11.707317352294922,-7.804878234863281
7.804878234863281,-11.707317352294922,-7.804878234863281
7.804878234863281,-15.609756469726562,-3.9024391174316406
15.609756469726562,-15.609756469726562,-3.9024391174316406
19.512195587158203,-11.707317352294922,-3.9024391174316406
15.609756469726562,-3.9024391174316406,-3.9024391174316406
11.707317352294922,-3.9024391174316406,-7.804878234863281
3.9024391174316406,-7.804878234863281,-7.804878234863281
-3.9024391174316406,-7.804878234863281,-11.707317352294922
-7.804878234863281,-7.804878234863281,-15.609756469726562
-11.707317352294922,-11.707317352294922,-19.512195587158203
-11.707317352294922,-7.804878234863281,-19.512195587158203
-7.804878234863281,-3.9024391174316406,-15.609756469726562
-3.9024391174316406,3.9024391174316406,-11.707317352294922
0.0,7.804878234863281,-11.707317352294922
-3.9024391174316406,7.804878234863281,-11.707317352294922
-3.9024391174316406,7.804878234863281,-7.804878234863281
-7.804878234863281,11.707317352294922,-7.804878234863281
-11.707317352294922,7.804878234863281,-3.9024391174316406
-15.609756469726562,0.0,-3.9024391174316406
-15.609756469726562,0.0,-3.9024391174316406
-15.609756469726562,-3.9024391174316406,-3.9024391174316406
-11.707317352294922,-3.9024391174316406,0.0
-11.707317352294922,-3.9024391174316406,0.0
-11.707317352294922,-11.707317352294922,0.0
-11.707317352294922,-19.512195587158203,-3.9024391174316406
-11.707317352294922,-23.414634704589844,-7.804878234863281
-15.609756469726562,-27.317073822021484,-7.804878234863281
-15.609756469726562,-31.219512939453125,-11.707317352294922
-15.609756469726562,-31.219512939453125,-11.707317352294922
-19.512195587158203,-27.317073822021484,-11.707317352294922
-19.512195587158203,-27.317073822021484,-11.707317352294922
-19.512195587158203,-23.414634704589844,-11.707317352294922
-19.512195587158203,-27.317073822021484,-11.707317352294922
-19.512195587158203,-31.219512939453125,-7.804878234863281
-19.512195587158203,-31.219512939453125,-3.9024391174316406
-19.512195587158203,-27.317073822021484,-3.9024391174316406
-23.414634704589844,-15.609756469726562,-7.804878234863281
-78.04878234863281,23.414634704589844,11.707317352294922
-35.121952056884766,-11.707317352294922,-11.707317352294922
-23.414634704589844,7.804878234863281,-3.9024391174316406
-19.512195587158203,27.317073822021484,-3.9024391174316406
-11.707317352294922,23.414634704589844,-7.804878234863281
-3.9024391174316406,3.9024391174316406,-11.707317352294922
-7.804878234863281,-11.707317352294922,-15.609756469726562
-11.707317352294922,-7.804878234863281,-19.512195587158203
-11.707317352294922,-3.9024391174316406,-15.609756469726562
-11.707317352294922,-7.804878234863281,-15.609756469726562
-11.707317352294922,-7.804878234863281,-11.707317352294922
-11.707317352294922,-7.804878234863281,-11.707317352294922
-7.804878234863281,-3.9024391174316406,-7.804878234863281
-11.707317352294922,-3.9024391174316406,-3.9024391174316406
-15.609756469726562,-3.9024391174316406,-3.9024391174316406
-19.512195587158203,-3.9024391174316406,0.0
-19.512195587158203,0.0,0.0
-23.414634704589844,3.9024391174316406,0.0
-23.414634704589844,3.9024391174316406,0.0
-23.414634704589844,11.707317352294922,0.0
-23.414634704589844,11.707317352294922,0.0
-23.414634704589844,15.609756469726562,-3.9024391174316406
-19.512195587158203,19.512195587158203,-3.9024391174316406
-19.512195587158203,23.414634704589844,0.0
-19.512195587158203,27.317073822021484,0.0
-15.609756469726562,31.219512939453125,0.0
-11.707317352294922,39.024391174316406,3.9024391174316406
-11.707317352294922,42.92683029174805,3.9024391174316406
-7.804878234863281,42.92683029174805,7.804878234863281
-3.9024391174316406,42.92683029174805,7.804878234863281
0.0,39.024391174316406,7.804878234863281
3.9024391174316406,39.024391174316406,11.707317352294922
11.707317352294922,42.92683029174805,11.707317352294922
15.609756469726562,46.82926940917969,11.707317352294922
19.512195587158203,58.53658676147461,7.804878234863281
27.317073822021484,70.24390411376953,7.804878234863281
31.219512939453125,78.04878234863281,7.804878234863281
35.121952056884766,78.04878234863281,7.804878234863281
-27.317073822021484,27.317073822021484,-50.73170852661133
-15.609756469726562,-11.707317352294922,-15.609756469726562
0.0,15.609756469726562,-7.804878234863281
-3.9024391174316406,27.317073822021484,-7.804878234863281
0.0,15.609756469726562,-7.804878234863281
3.9024391174316406,15.609756469726562,-7.804878234863281
3.9024391174316406,23.414634704589844,-7.804878234863281
3.9024391174316406,31.219512939453125,-3.9024391174316406
7.804878234863281,35.121952056884766,-3.9024391174316406
7.804878234863281,35.121952056884766,-3.9024391174316406
7.804878234863281,35.121952056884766,-3.9024391174316406
7.804878234863281,39.024391174316406,-3.9024391174316406
7.804878234863281,46.82926940917969,-3.9024391174316406
11.707317352294922,46.82926940917969,0.0
11.707317352294922,54.63414764404297,0.0
15.609756469726562,62.43902587890625,0.0
31.219512939453125,81.95121765136719,3.9024391174316406
70.24390411376953,120.9756088256836,7.804878234863281
62.43902587890625,124.8780517578125,11.707317352294922
66.34146118164062,109.26829528808594,11.707317352294922
74.1463394165039,97.56097412109375,15.609756469726562
74.1463394165039,70.24390411376953,35.121952056884766
78.04878234863281,50.73170852661133,50.73170852661133
89.75609588623047,46.82926940917969,62.43902587890625
105.36585235595703,50.73170852661133,78.04878234863281
140.48780822753906,74.1463394165039,70.24390411376953
35.121952056884766,46.82926940917969,15.609756469726562
-136.5853729248047,-156.09756469726562,-58.53658676147461
-7.804878234863281,-105.36585235595703,-27.317073822021484
-7.804878234863281,19.512195587158203,7.804878234863281
-23.414634704589844,35.121952056884766,11.707317352294922
-31.219512939453125,11.707317352294922,7.804878234863281
-35.121952056884766,-31.219512939453125,-3.9024391174316406
-39.024391174316406,-54.63414764404297,-15.609756469726562
-50.73170852661133,-58.53658676147461,-11.707317352294922
-54.63414764404297,-54.63414764404297,-11.707317352294922
-50.73170852661133,-46.82926940917969,-7.804878234863281
-42.92683029174805,-39.024391174316406,-7.804878234863281
-42.92683029174805,-35.121952056884766,-7.804878234863281
-39.024391174316406,-35.121952056884766,-7.804878234863281
-31.219512939453125,-31.219512939453125,-11.707317352294922
-27.317073822021484,-27.317073822021484,-11.707317352294922
-23.414634704589844,-23.414634704589844,-11.707317352294922
-19.512195587158203,-19.512195587158203,-7.804878234863281
-15.609756469726562,-11.707317352294922,-7.804878234863281
-15.609756469726562,-11.707317352294922,-7.804878234863281
-11.707317352294922,-11.707317352294922,-7.804878234863281
-11.707317352294922,-7.804878234863281,-7.804878234863281
-15.609756469726562,-7.804878234863281,-3.9024391174316406
-15.609756469726562,-3.9024391174316406,0.0
-23.414634704589844,0.0,0.0
-31.219512939453125,-7.804878234863281,-3.9024391174316406
-35.121952056884766,-11.707317352294922,-3.9024391174316406
-42.92683029174805,-19.512195587158203,-7.804878234863281
-42.92683029174805,-19.512195587158203,-11.707317352294922
-46.82926940917969,-19.512195587158203,-11.707317352294922
-46.82926940917969,-19.512195587158203,-11.707317352294922
-50.73170852661133,-19.512195587158203,-15.609756469726562
-58.53658676147461,-19.512195587158203,-15.609756469726562
-81.95121765136719,-35.121952056884766,-15.609756469726562
-78.04878234863281,-42.92683029174805,-27.317073822021484
-50.73170852661133,-3.9024391174316406,-35.121952056884766
-97.56097412109375,27.317073822021484,-7.804878234863281
-66.34146118164062,-7.804878234863281,-31.219512939453125
-46.82926940917969,-23.414634704589844,-31.219512939453125
-31.219512939453125,3.9024391174316406,-15.609756469726562
-19.512195587158203,-11.707317352294922,-11.707317352294922
-23.414634704589844,-19.512195587158203,-15.609756469726562
-23.414634704589844,-15.609756469726562,-15.609756469726562
-23.414634704589844,-7.804878234863281,-15.609756469726562
-27.317073822021484,-7.804878234863281,-15.609756469726562
-31.219512939453125,-7.804878234863281,-15.609756469726562
-27.317073822021484,-7.804878234863281,-15.609756469726562
-31.219512939453125,0.0,-11.707317352294922
-35.121952056884766,3.9024391174316406,-11.707317352294922
-35.121952056884766,19.512195587158203,-7.804878234863281
-35.121952056884766,23.414634704589844,-3.9024391174316406
-35.121952056884766,27.317073822021484,-3.9024391174316406
-35.121952056884766,42.92683029174805,3.9024391174316406
-35.121952056884766,54.63414764404297,11.707317352294922
-31.219512939453125,62.43902587890625,11.707317352294922
-23.414634704589844,62.43902587890625,11.707317352294922
-19.512195587158203,58.53658676147461,11.707317352294922
-15.609756469726562,54.63414764404297,11.707317352294922
-15.609756469726562,50.73170852661133,11.707317352294922
-15.609756469726562,50.73170852661133,15.609756469726562
-19.512195587158203,50.73170852661133,15.609756469726562
-19.512195587158203,46.82926940917969,15.609756469726562
-23.414634704589844,39.024391174316406,15.609756469726562
-23.414634704589844,35.121952056884766,15.609756469726562
-23.414634704589844,31.219512939453125,11.707317352294922
-27.317073822021484,23.414634704589844,11.707317352294922
-27.317073822021484,23.414634704589844,11.707317352294922
-23.414634704589844,23.414634704589844,11.707317352294922
-23.414634704589844,23.414634704589844,11.707317352294922
-23.414634704589844,31.219512939453125,11.707317352294922
-23.414634704589844,31.219512939453125,15.609756469726562
-19.512195587158203,35.121952056884766,15.609756469726562
-19.512195587158203,31.219512939453125,15.609756469726562
-19.512195587158203,31.219512939453125,11.707317352294922
-19.512195587158203,27.317073822021484,11.707317352294922
-15.609756469726562,23.414634704589844,11.707317352294922
-15.609756469726562,23.414634704589844,11.707317352294922
-11.707317352294922,23.414634704589844,7.804878234863281
-11.707317352294922,23.414634704589844,7.804878234863281
-11.707317352294922,23.414634704589844,7.804878234863281
-11.707317352294922,19.512195587158203,3.9024391174316406
-11.707317352294922,19.512195587158203,3.9024391174316406
-11.707317352294922,19.512195587158203,3.9024391174316406
-7.804878234863281,15.609756469726562,3.9024391174316406
-7.804878234863281,15.609756469726562,3.9024391174316406
-7.804878234863281,15.609756469726562,3.9024391174316406
-7.804878234863281,11.707317352294922,3.9024391174316406
-7.804878234863281,7.804878234863281,3.9024391174316406
-7.804878234863281,3.9024391174316406,0.0
-15.609756469726562,-3.9024391174316406,0.0
-23.414634704589844,-7.804878234863281,0.0
-31.219512939453125,-19.512195587158203,0.0
-35.121952056884766,-27.317073822021484,0.0
-42.92683029174805,-42.92683029174805,0.0
-50.73170852661133,-54.63414764404297,-3.9024391174316406
-66.34146118164062,-70.24390411376953,-11.707317352294922
-78.04878234863281,-89.75609588623047,-19.512195587158203
-85.8536605834961,-109.26829528808594,-31.219512939453125
-81.95121765136719,-124.8780517578125,-39.024391174316406
-62.43902587890625,-136.5853729248047,-42.92683029174805
-46.82926940917969,-136.5853729248047,-46.82926940917969
-35.121952056884766,-136.5853729248047,-50.73170852661133
-27.317073822021484,-136.5853729248047,-50.73170852661133
-19.512195587158203,-132.68292236328125,-50.73170852661133
-3.9024391174316406,-128.78048706054688,-50.73170852661133
31.219512939453125,-93.65853881835938,-46.82926940917969
31.219512939453125,-39.024391174316406,-27.317073822021484
15.609756469726562,-50.73170852661133,-27.317073822021484
7.804878234863281,-50.73170852661133,-27.317073822021484
3.9024391174316406,-39.024391174316406,-27.317073822021484
0.0,-42.92683029174805,-27.317073822021484
0.0,-42.92683029174805,-31.219512939453125
0.0,-39.024391174316406,-31.219512939453125
0.0,-35.121952056884766,-31.219512939453125
0.0,-31.219512939453125,-27.317073822021484
0.0,-27.317073822021484,-23.414634704589844
3.9024391174316406,-15.609756469726562,-15.609756469726562
11.707317352294922,-11.707317352294922,-11.707317352294922
19.512195587158203,-11.707317352294922,-7.804878234863281
23.414634704589844,-15.609756469726562,-7.804878234863281
23.414634704589844,-19.512195587158203,-7.804878234863281
15.609756469726562,-27.317073822021484,-11.707317352294922
15.609756469726562,-27.317073822021484,-11.707317352294922
15.609756469726562,-23.414634704589844,-15.609756469726562
15.609756469726562,-19.512195587158203,-11.707317352294922
11.707317352294922,-11.707317352294922,-11.707317352294922
0.0,-7.804878234863281,-11.707317352294922
-11.707317352294922,-3.9024391174316406,-7.804878234863281
-15.609756469726562,0.0,-7.804878234863281
-15.609756469726562,7.804878234863281,-7.804878234863281
-19.512195587158203,7.804878234863281,-11.707317352294922
-19.512195587158203,7.804878234863281,-11.707317352294922
-19.512195587158203,3.9024391174316406,-7.804878234863281
-19.512195587158203,3.9024391174316406,-7.804878234863281
-15.609756469726562,0.0,-7.804878234863281
-15.609756469726562,-3.9024391174316406,-7.804878234863281
-23.414634704589844,-7.804878234863281,-7.804878234863281
-23.414634704589844,-15.609756469726562,-7.804878234863281
-31.219512939453125,-23.414634704589844,-7.804878234863281
-46.82926940917969,-50.73170852661133,-11.707317352294922
-54.63414764404297,-58.53658676147461,-11.707317352294922
-46.82926940917969,-39.024391174316406,-11.707317352294922
-35.121952056884766,15.609756469726562,3.9024391174316406
-35.121952056884766,11.707317352294922,-3.9024391174316406
-35.121952056884766,11.707317352294922,-11.707317352294922
-19.512195587158203,27.317073822021484,-15.609756469726562
-15.609756469726562,23.414634704589844,-15.609756469726562
-15.609756469726562,19.512195587158203,-15.609756469726562
-15.609756469726562,27.317073822021484,-15.609756469726562
-19.512195587158203,27.317073822021484,-11.707317352294922
-23.414634704589844,31.219512939453125,-11.707317352294922
-23.414634704589844,35.121952056884766,-7.804878234863281
-19.512195587158203,35.121952056884766,-7.804878234863281
-15.609756469726562,31.219512939453125,-7.804878234863281
-11.707317352294922,31.219512939453125,-7.804878234863281
-11.707317352294922,27.317073822021484,-3.9024391174316406
-11.707317352294922,27.317073822021484,0.0
-11.707317352294922,27.317073822021484,0.0
-11.707317352294922,27.317073822021484,3.9024391174316406
-7.804878234863281,27.317073822021484,3.9024391174316406
-7.804878234863281,23.414634704589844,3.9024391174316406
-7.804878234863281,27.317073822021484,3.9024391174316406
-7.804878234863281,27.317073822021484,0.0
-11.707317352294922,27.317073822021484,0.0
-11.707317352294922,27.317073822021484,0.0
-11.707317352294922,27.317073822021484,0.0
-7.804878234863281,23.414634704589844,-3.9024391174316406
-7.804878234863281,23.414634704589844,-3.9024391174316406
-7.804878234863281,23.414634704589844,0.0
-7.804878234863281,23.414634704589844,0.0
-11.707317352294922,23.414634704589844,0.0
-11.707317352294922,19.512195587158203,0.0
-15.609756469726562,19.512195587158203,0.0
-15.609756469726562,19.512195587158203,3.9024391174316406
-11.707317352294922,19.512195587158203,3.9024391174316406
-11.707317352294922,23.414634704589844,3.9024391174316406
-15.609756469726562,23.414634704589844,0.0
-15.609756469726562,23.414634704589844,0.0
-15.609756469726562,23.414634704589844,0.0
-15.609756469726562,19.512195587158203,0.0
-15.609756469726562,19.512195587158203,0.0
-11.707317352294922,19.512195587158203,0.0
-11.707317352294922,19.512195587158203,0.0
-11.707317352294922,19.512195587158203,3.9024391174316406
-11.707317352294922,15.609756469726562,0.0
-11.707317352294922,15.609756469726562,3.9024391174316406
-7.804878234863281,15.609756469726562,3.9024391174316406
-7.804878234863281,15.609756469726562,3.9024391174316406
-7.804878234863281,15.609756469726562,3.9024391174316406
-3.9024391174316406,15.609756469726562,3.9024391174316406
-3.9024391174316406,11.707317352294922,3.9024391174316406
-3.9024391174316406,11.707317352294922,3.9024391174316406
-3.9024391174316406,7.804878234863281,3.9024391174316406
-3.9024391174316406,0.0,0.0
-3.9024391174316406,-7.804878234863281,0.0
0.0,-11.707317352294922,-3.9024391174316406
0.0,-11.707317352294922,-3.9024391174316406
-3.9024391174316406,-11.707317352294922,-3.9024391174316406
-7.804878234863281,-19.512195587158203,-7.804878234863281
-7.804878234863281,-27.317073822021484,-7.804878234863281
-7.804878234863281,-31.219512939453125,-7.804878234863281
-11.707317352294922,-39.024391174316406,-7.804878234863281
-11.707317352294922,-42.92683029174805,-11.707317352294922
-15.609756469726562,-46.82926940917969,-7.804878234863281
-19.512195587158203,-54.63414764404297,-11.707317352294922
-23.414634704589844,-66.34146118164062,-11.707317352294922
-27.317073822021484,-74.1463394165039,-11.707317352294922
-27.317073822021484,-74.1463394165039,-15.609756469726562
-27.317073822021484,-70.24390411376953,-15.609756469726562
-27.317073822021484,-66.34146118164062,-19.512195587158203
-27.317073822021484,-58.53658676147461,-19.512195587158203
-19.512195587158203,-42.92683029174805,-19.512195587158203
-15.609756469726562,-23.414634704589844,-11.707317352294922
-19.512195587158203,-27.317073822021484,-15.609756469726562
-15.609756469726562,-23.414634704589844,-15.609756469726562
-11.707317352294922,-15.609756469726562,-15.609756469726562
-11.707317352294922,-7.804878234863281,-15.609756469726562
-7.804878234863281,-3.9024391174316406,-15.609756469726562
-7.804878234863281,3.9024391174316406,-11.707317352294922
-3.9024391174316406,7.804878234863281,-11.707317352294922
0.0,7.804878234863281,-7.804878234863281
3.9024391174316406,7.804878234863281,-7.804878234863281
7.804878234863281,7.804878234863281,-7.804878234863281
3.9024391174316406,7.804878234863281,-3.9024391174316406
3.9024391174316406,7.804878234863281,-3.9024391174316406
3.9024391174316406,7.804878234863281,-3.9024391174316406
3.9024391174316406,11.707317352294922,-3.9024391174316406
0.0,11.707317352294922,-3.9024391174316406
0.0,15.609756469726562,-3.9024391174316406
0.0,19.512195587158203,-3.9024391174316406
0.0,27.317073822021484,-3.9024391174316406
-3.9024391174316406,31.219512939453125,0.0
-3.9024391174316406,31.219512939453125,-3.9024391174316406
-3.9024391174316406,27.317073822021484,-3.9024391174316406
-7.804878234863281,27.317073822021484,-3.9024391174316406
-7.804878234863281,23.414634704589844,-3.9024391174316406
-15.609756469726562,15.609756469726562,-3.9024391174316406
-15.609756469726562,15.609756469726562,0.0
-11.707317352294922,19.512195587158203,0.0
-7.804878234863281,23.414634704589844,0.0
-3.9024391174316406,19.512195587158203,7.804878234863281
-15.609756469726562,7.804878234863281,-3.9024391174316406
-11.707317352294922,15.609756469726562,3.9024391174316406
-11.707317352294922,19.512195587158203,7.804878234863281
-11.707317352294922,15.609756469726562,3.9024391174316406
-3.9024391174316406,19.512195587158203,3.9024391174316406
0.0,15.609756469726562,0.0
0.0,15.609756469726562,-3.9024391174316406
-3.9024391174316406,23.414634704589844,-3.9024391174316406
-7.804878234863281,39.024391174316406,-3.9024391174316406
-11.707317352294922,42.92683029174805,-3.9024391174316406
-11.707317352294922,39.024391174316406,-3.9024391174316406
-7.804878234863281,39.024391174316406,-3.9024391174316406
-3.9024391174316406,35.121952056884766,-3.9024391174316406
0.0,35.121952056884766,0.0
0.0,31.219512939453125,0.0
3.9024391174316406,31.219512939453125,0.0
3.9024391174316406,27.317073822021484,0.0
3.9024391174316406,27.317073822021484,3.9024391174316406
0.0,23.414634704589844,3.9024391174316406
0.0,19.512195587158203,3.9024391174316406
-3.9024391174316406,19.512195587158203,3.9024391174316406
-3.9024391174316406,19.512195587158203,7.804878234863281
0.0,23.414634704589844,7.804878234863281
0.0,27.317073822021484,7.804878234863281
0.0,31.219512939453125,11.707317352294922
0.0,35.121952056884766,11.707317352294922
3.9024391174316406,39.024391174316406,11.707317352294922
7.804878234863281,42.92683029174805,15.609756469726562
15.609756469726562,46.82926940917969,11.707317352294922
27.317073822021484,54.63414764404297,15.609756469726562
35.121952056884766,66.34146118164062,15.609756469726562
42.92683029174805,78.04878234863281,15.609756469726562
46.82926940917969,81.95121765136719,19.512195587158203
50.73170852661133,85.8536605834961,19.512195587158203
54.63414764404297,85.8536605834961,23.414634704589844
54.63414764404297,85.8536605834961,23.414634704589844
50.73170852661133,81.95121765136719,27.317073822021484
-15.609756469726562,46.82926940917969,3.9024391174316406
-19.512195587158203,35.121952056884766,7.804878234863281
15.609756469726562,66.34146118164062,7.804878234863281
23.414634704589844,78.04878234863281,7.804878234863281
27.317073822021484,81.95121765136719,15.609756469726562
35.121952056884766,89.75609588623047,23.414634704589844
50.73170852661133,105.36585235595703,23.414634704589844
54.63414764404297,128.78048706054688,42.92683029174805
23.414634704589844,144.39024353027344,62.43902587890625
15.609756469726562,140.48780822753906,58.53658676147461
19.512195587158203,120.9756088256836,54.63414764404297
15.609756469726562,109.26829528808594,42.92683029174805
3.9024391174316406,97.56097412109375,39.024391174316406
-3.9024391174316406,93.65853881835938,39.024391174316406
0.0,89.75609588623047,39.024391174316406
0.0,85.8536605834961,42.92683029174805
-3.9024391174316406,74.1463394165039,39.024391174316406
-11.707317352294922,66.34146118164062,35.121952056884766
-11.707317352294922,62.43902587890625,35.121952056884766
-7.804878234863281,58.53658676147461,35.121952056884766
-7.804878234863281,58.53658676147461,35.121952056884766
0.0,54.63414764404297,39.024391174316406
7.804878234863281,50.73170852661133,39.024391174316406
-179.51219177246094,-85.8536605834961,-7.804878234863281
-46.82926940917969,-27.317073822021484,7.804878234863281
-31.219512939453125,19.512195587158203,19.512195587158203
-66.34146118164062,-7.804878234863281,0.0
-109.26829528808594,-39.024391174316406,-11.707317352294922
-128.78048706054688,-50.73170852661133,-15.609756469726562
-160.0,-81.95121765136719,-23.414634704589844
-187.31707763671875,-113.17073059082031,-19.512195587158203
-191.21951293945312,-117.07317352294922,-23.414634704589844
-179.51219177246094,-124.8780517578125,-23.414634704589844
-160.0,-120.9756088256836,-23.414634704589844
-148.2926788330078,-113.17073059082031,-19.512195587158203
-156.09756469726562,-117.07317352294922,-19.512195587158203
-163.90243530273438,-128.78048706054688,-15.609756469726562
-152.19512939453125,-124.8780517578125,-7.804878234863281
-132.68292236328125,-113.17073059082031,27.317073822021484
-101.46341705322266,-105.36585235595703,81.95121765136719
-97.56097412109375,-120.9756088256836,132.68292236328125
-89.75609588623047,-148.2926788330078,117.07317352294922
-78.04878234863281,-140.48780822753906,97.56097412109375
-50.73170852661133,-113.17073059082031,39.024391174316406
-35.121952056884766,-89.75609588623047,0.0
0.0,-46.82926940917969,-3.9024391174316406
105.36585235595703,15.609756469726562,7.804878234863281
124.8780517578125,70.24390411376953,23.414634704589844
120.9756088256836,97.56097412109375,23.414634704589844
124.8780517578125,140.48780822753906,42.92683029174805
89.75609588623047,136.5853729248047,50.73170852661133
42.92683029174805,105.36585235595703,50.73170852661133
23.414634704589844,93.65853881835938,46.82926940917969
3.9024391174316406,62.43902587890625,35.121952056884766
-11.707317352294922,35.121952056884766,23.414634704589844
-23.414634704589844,11.707317352294922,11.707317352294922
-23.414634704589844,0.0,0.0
-11.707317352294922,0.0,-3.9024391174316406
-7.804878234863281,11.707317352294922,-7.804878234863281
-15.609756469726562,11.707317352294922,-3.9024391174316406
-19.512195587158203,15.609756469726562,-3.9024391174316406
-23.414634704589844,19.512195587158203,-3.9024391174316406
-31.219512939453125,19.512195587158203,-3.9024391174316406
-35.121952056884766,15.609756469726562,-3.9024391174316406
-35.121952056884766,11.707317352294922,0.0
-35.121952056884766,3.9024391174316406,0.0
-31.219512939453125,3.9024391174316406,3.9024391174316406
-31.219512939453125,3.9024391174316406,3.9024391174316406
-31.219512939453125,3.9024391174316406,7.804878234863281
-31.219512939453125,3.9024391174316406,7.804878234863281
-31.219512939453125,7.804878234863281,11.707317352294922
-31.219512939453125,11.707317352294922,11.707317352294922
-31.219512939453125,11.707317352294922,15.609756469726562
-31.219512939453125,15.609756469726562,15.609756469726562
-27.317073822021484,15.609756469726562,15.609756469726562
-19.512195587158203,19.512195587158203,11.707317352294922
0.0,31.219512939453125,7.804878234863281
19.512195587158203,46.82926940917969,11.707317352294922
39.024391174316406,66.34146118164062,15.609756469726562
54.63414764404297,78.04878234863281,23.414634704589844
70.24390411376953,85.8536605834961,31.219512939453125
89.75609588623047,81.95121765136719,42.92683029174805
97.56097412109375,70.24390411376953,58.53658676147461
105.36585235595703,66.34146118164062,81.95121765136719
109.26829528808594,89.75609588623047,50.73170852661133
113.17073059082031,105.36585235595703,3.9024391174316406
42.92683029174805,81.95121765136719,-3.9024391174316406
-19.512195587158203,35.121952056884766,3.9024391174316406
-23.414634704589844,19.512195587158203,3.9024391174316406
-27.317073822021484,27.317073822021484,-3.9024391174316406
-35.121952056884766,27.317073822021484,0.0
-42.92683029174805,19.512195587158203,0.0
-35.121952056884766,15.609756469726562,0.0
-27.317073822021484,15.609756469726562,0.0
-19.512195587158203,15.609756469726562,0.0
-11.707317352294922,15.609756469726562,3.9024391174316406
-11.707317352294922,15.609756469726562,0.0
-11.707317352294922,19.512195587158203,0.0
-7.804878234863281,19.512195587158203,-3.9024391174316406
3.9024391174316406,19.512195587158203,-3.9024391174316406
11.707317352294922,27.317073822021484,-3.9024391174316406
15.609756469726562,31.219512939453125,-3.9024391174316406
11.707317352294922,35.121952056884766,-7.804878234863281
11.707317352294922,42.92683029174805,-7.804878234863281
7.804878234863281,42.92683029174805,-7.804878234863281
3.9024391174316406,39.024391174316406,-11.707317352294922
0.0,35.121952056884766,-11.707317352294922
-144.39024353027344,27.317073822021484,-46.82926940917969
-81.95121765136719,11.707317352294922,-74.1463394165039
31.219512939453125,42.92683029174805,11.707317352294922
-42.92683029174805,39.024391174316406,-23.414634704589844
-74.1463394165039,31.219512939453125,-39.024391174316406
-42.92683029174805,27.317073822021484,-23.414634704589844
-23.414634704589844,19.512195587158203,-19.512195587158203
-27.317073822021484,15.609756469726562,-11.707317352294922
-31.219512939453125,7.804878234863281,-7.804878234863281
-31.219512939453125,7.804878234863281,-3.9024391174316406
-31.219512939453125,3.9024391174316406,0.0
-27.317073822021484,3.9024391174316406,0.0
-23.414634704589844,0.0,0.0
-15.609756469726562,0.0,0.0
-11.707317352294922,0.0,3.9024391174316406
-7.804878234863281,3.9024391174316406,3.9024391174316406
0.0,7.804878234863281,3.9024391174316406
3.9024391174316406,11.707317352294922,3.9024391174316406
7.804878234863281,23.414634704589844,3.9024391174316406
11.707317352294922,35.121952056884766,0.0
15.609756469726562,42.92683029174805,3.9024391174316406
19.512195587158203,46.82926940917969,3.9024391174316406
27.317073822021484,46.82926940917969,15.609756469726562
31.219512939453125,39.024391174316406,23.414634704589844
58.53658676147461,31.219512939453125,42.92683029174805
66.34146118164062,27.317073822021484,62.43902587890625
74.1463394165039,39.024391174316406,54.63414764404297
74.1463394165039,46.82926940917969,27.317073822021484
74.1463394165039,42.92683029174805,11.707317352294922
35.121952056884766,39.024391174316406,11.707317352294922
23.414634704589844,39.024391174316406,11.707317352294922
19.512195587158203,42.92683029174805,15.609756469726562
23.414634704589844,42.92683029174805,15.609756469726562
19.512195587158203,39.024391174316406,11.707317352294922
15.609756469726562,31.219512939453125,11.707317352294922
11.707317352294922,23.414634704589844,11.707317352294922
11.707317352294922,19.512195587158203,11.707317352294922
15.609756469726562,11.707317352294922,11.707317352294922
11.707317352294922,7.804878234863281,7.804878234863281
7.804878234863281,7.804878234863281,7.804878234863281
3.9024391174316406,7.804878234863281,3.9024391174316406
0.0,7.804878234863281,0.0
-7.804878234863281,7.804878234863281,-3.9024391174316406
-31.219512939453125,19.512195587158203,-11.707317352294922
-132.68292236328125,-15.609756469726562,-97.56097412109375
-39.024391174316406,11.707317352294922,-23.414634704589844
-66.34146118164062,3.9024391174316406,-39.024391174316406
-70.24390411376953,-11.707317352294922,-35.121952056884766
-50.73170852661133,-7.804878234863281,-19.512195587158203
-54.63414764404297,-15.609756469726562,-15.609756469726562
-62.43902587890625,-27.317073822021484,-15.609756469726562
-74.1463394165039,-39.024391174316406,-15.609756469726562
-81.95121765136719,-46.82926940917969,-19.512195587158203
-93.65853881835938,-54.63414764404297,-19.512195587158203
-97.56097412109375,-54.63414764404297,-19.512195587158203
-109.26829528808594,-62.43902587890625,-15.609756469726562
-124.8780517578125,-70.24390411376953,-19.512195587158203
-132.68292236328125,-78.04878234863281,-23.414634704589844
-128.78048706054688,-78.04878234863281,-23.414634704589844
-124.8780517578125,-81.95121765136719,-23.414634704589844
-120.9756088256836,-78.04878234863281,-19.512195587158203
-117.07317352294922,-78.04878234863281,-19.512195587158203
-113.17073059082031,-78.04878234863281,-19.512195587158203
-105.36585235595703,-78.04878234863281,-19.512195587158203
-89.75609588623047,-78.04878234863281,-27.317073822021484
-85.8536605834961,-78.04878234863281,-31.219512939453125
-85.8536605834961,-70.24390411376953,-27.317073822021484
-81.95121765136719,-58.53658676147461,-27.317073822021484
-120.9756088256836,-54.63414764404297,-31.219512939453125
-167.8048858642578,-85.8536605834961,-39.024391174316406
-113.17073059082031,-62.43902587890625,-35.121952056884766
-46.82926940917969,-15.609756469726562,-19.512195587158203
-15.609756469726562,7.804878234863281,-7.804878234863281
-7.804878234863281,19.512195587158203,-3.9024391174316406
0.0,27.317073822021484,-3.9024391174316406
3.9024391174316406,31.219512939453125,-3.9024391174316406
7.804878234863281,35.121952056884766,-3.9024391174316406
15.609756469726562,35.121952056884766,-3.9024391174316406
23.414634704589844,42.92683029174805,-3.9024391174316406
39.024391174316406,46.82926940917969,-7.804878234863281
27.317073822021484,54.63414764404297,-3.9024391174316406
11.707317352294922,54.63414764404297,3.9024391174316406
11.707317352294922,62.43902587890625,0.0
11.707317352294922,74.1463394165039,-3.9024391174316406
11.707317352294922,93.65853881835938,-3.9024391174316406
15.609756469726562,113.17073059082031,-3.9024391174316406
35.121952056884766,117.07317352294922,0.0
46.82926940917969,113.17073059082031,7.804878234863281
70.24390411376953,74.1463394165039,27.317073822021484
101.46341705322266,0.0,31.219512939453125
187.31707763671875,-62.43902587890625,-19.512195587158203
300.4878234863281,-128.78048706054688,-35.121952056884766
378.5365905761719,-120.9756088256836,-15.609756469726562
398.0487976074219,-35.121952056884766,-3.9024391174316406
347.31707763671875,62.43902587890625,0.0
249.756103515625,109.26829528808594,0.0
156.09756469726562,105.36585235595703,3.9024391174316406
117.07317352294922,93.65853881835938,3.9024391174316406
62.43902587890625,70.24390411376953,3.9024391174316406
31.219512939453125,70.24390411376953,3.9024391174316406
23.414634704589844,89.75609588623047,3.9024391174316406
39.024391174316406,113.17073059082031,11.707317352294922
-132.68292236328125,117.07317352294922,-19.512195587158203
-214.6341552734375,62.43902587890625,-66.34146118164062
-245.85366821289062,7.804878234863281,-93.65853881835938
-202.9268341064453,-11.707317352294922,-89.75609588623047
-152.19512939453125,-46.82926940917969,-39.024391174316406
-148.2926788330078,-89.75609588623047,-23.414634704589844
-144.39024353027344,-97.56097412109375,-27.317073822021484
-128.78048706054688,-74.1463394165039,-35.121952056884766
-97.56097412109375,-46.82926940917969,-31.219512939453125
-66.34146118164062,-27.317073822021484,-27.317073822021484
-35.121952056884766,-7.804878234863281,-23.414634704589844
-7.804878234863281,11.707317352294922,-15.609756469726562
19.512195587158203,27.317073822021484,-7.804878234863281
46.82926940917969,54.63414764404297,-7.804878234863281
70.24390411376953,85.8536605834961,-3.9024391174316406
101.46341705322266,128.78048706054688,3.9024391174316406
128.78048706054688,148.2926788330078,23.414634704589844
136.5853729248047,144.39024353027344,31.219512939453125
163.90243530273438,93.65853881835938,62.43902587890625
179.51219177246094,3.9024391174316406,109.26829528808594
218.53659057617188,11.707317352294922,54.63414764404297
163.90243530273438,58.53658676147461,7.804878234863281
93.65853881835938,58.53658676147461,3.9024391174316406
27.317073822021484,7.804878234863281,-7.804878234863281
-39.024391174316406,-46.82926940917969,-7.804878234863281
-50.73170852661133,-54.63414764404297,7.804878234863281
-15.609756469726562,0.0,11.707317352294922
31.219512939453125,46.82926940917969,19.512195587158203
42.92683029174805,54.63414764404297,23.414634704589844
42.92683029174805,46.82926940917969,27.317073822021484
27.317073822021484,35.121952056884766,19.512195587158203
15.609756469726562,27.317073822021484,15.609756469726562
15.609756469726562,19.512195587158203,11.707317352294922
7.804878234863281,23.414634704589844,3.9024391174316406
7.804878234863281,27.317073822021484,0.0
3.9024391174316406,31.219512939453125,-3.9024391174316406
-66.34146118164062,-7.804878234863281,-27.317073822021484
-46.82926940917969,-19.512195587158203,-19.512195587158203
-54.63414764404297,3.9024391174316406,-19.512195587158203
-54.63414764404297,7.804878234863281,-27.317073822021484
-35.121952056884766,7.804878234863281,-27.317073822021484
-27.317073822021484,19.512195587158203,-27.317073822021484
-27.317073822021484,19.512195587158203,-27.317073822021484
-35.121952056884766,11.707317352294922,-31.219512939453125
-46.82926940917969,0.0,-31.219512939453125
-58.53658676147461,-19.512195587158203,-27.317073822021484
-74.1463394165039,-39.024391174316406,-19.512195587158203
-85.8536605834961,-46.82926940917969,-19.512195587158203
-89.75609588623047,-50.73170852661133,-23.414634704589844
-93.65853881835938,-54.63414764404297,-23.414634704589844
-93.65853881835938,-54.63414764404297,-23.414634704589844
-101.46341705322266,-54.63414764404297,-23.414634704589844
-101.46341705322266,-54.63414764404297,-23.414634704589844
-97.56097412109375,-50.73170852661133,-23.414634704589844
-93.65853881835938,-54.63414764404297,-19.512195587158203
-93.65853881835938,-50.73170852661133,-15.609756469726562
-97.56097412109375,-46.82926940917969,-15.609756469726562
-97.56097412109375,-46.82926940917969,-15.609756469726562
-97.56097412109375,-42.92683029174805,-19.512195587158203
-93.65853881835938,-42.92683029174805,-19.512195587158203
-93.65853881835938,-42.92683029174805,-19.512195587158203
-89.75609588623047,-42.92683029174805,-19.512195587158203
-85.8536605834961,-39.024391174316406,-19.512195587158203
-85.8536605834961,-39.024391174316406,-19.512195587158203
-85.8536605834961,-39.024391174316406,-19.512195587158203
-85.8536605834961,-39.024391174316406,-19.512195587158203
-78.04878234863281,-31.219512939453125,-15.609756469726562
-66.34146118164062,-23.414634704589844,-11.707317352294922
-54.63414764404297,-11.707317352294922,-11.707317352294922
-46.82926940917969,-3.9024391174316406,-11.707317352294922
-35.121952056884766,3.9024391174316406,-11.707317352294922
-31.219512939453125,7.804878234863281,-11.707317352294922
-23.414634704589844,11.707317352294922,-7.804878234863281
-15.609756469726562,15.609756469726562,-7.804878234863281
-7.804878234863281,23.414634704589844,-7.804878234863281
0.0,31.219512939453125,-7.804878234863281
3.9024391174316406,42.92683029174805,-11.707317352294922
19.512195587158203,62.43902587890625,-11.707317352294922
39.024391174316406,85.8536605834961,-11.707317352294922
54.63414764404297,105.36585235595703,-11.707317352294922
74.1463394165039,120.9756088256836,-11.707317352294922
85.8536605834961,132.68292236328125,-7.804878234863281
93.65853881835938,140.48780822753906,-7.804878234863281
105.36585235595703,144.39024353027344,-3.9024391174316406
109.26829528808594,132.68292236328125,3.9024391174316406
109.26829528808594,89.75609588623047,19.512195587158203
101.46341705322266,50.73170852661133,27.317073822021484
97.56097412109375,35.121952056884766,31.219512939453125
105.36585235595703,27.317073822021484,39.024391174316406
105.36585235595703,7.804878234863281,54.63414764404297
105.36585235595703,-11.707317352294922,70.24390411376953
117.07317352294922,-23.414634704589844,85.8536605834961
128.78048706054688,-11.707317352294922,93.65853881835938
120.9756088256836,42.92683029174805,31.219512939453125
70.24390411376953,101.46341705322266,-7.804878234863281
27.317073822021484,31.219512939453125,23.414634704589844
-27.317073822021484,-78.04878234863281,27.317073822021484
-97.56097412109375,-136.5853729248047,3.9024391174316406
-109.26829528808594,-109.26829528808594,-7.804878234863281
-66.34146118164062,-54.63414764404297,0.0
-23.414634704589844,-11.707317352294922,7.804878234863281
-7.804878234863281,15.609756469726562,3.9024391174316406
-3.9024391174316406,7.804878234863281,3.9024391174316406
-7.804878234863281,-11.707317352294922,7.804878234863281
-7.804878234863281,-11.707317352294922,7.804878234863281
-11.707317352294922,-7.804878234863281,0.0
-11.707317352294922,0.0,0.0
-11.707317352294922,0.0,0.0
-11.707317352294922,-3.9024391174316406,3.9024391174316406
-3.9024391174316406,3.9024391174316406,3.9024391174316406
11.707317352294922,19.512195587158203,3.9024391174316406
19.512195587158203,39.024391174316406,7.804878234863281
23.414634704589844,50.73170852661133,7.804878234863281
23.414634704589844,54.63414764404297,3.9024391174316406
23.414634704589844,62.43902587890625,3.9024391174316406
23.414634704589844,58.53658676147461,7.804878234863281
19.512195587158203,50.73170852661133,7.804878234863281
11.707317352294922,54.63414764404297,3.9024391174316406
11.707317352294922,54.63414764404297,-3.9024391174316406
11.707317352294922,50.73170852661133,-7.804878234863281
3.9024391174316406,58.53658676147461,-15.609756469726562
-160.0,27.317073822021484,-140.48780822753906
-66.34146118164062,-7.804878234863281,-66.34146118164062
-31.219512939453125,62.43902587890625,-42.92683029174805
-54.63414764404297,46.82926940917969,-54.63414764404297
-58.53658676147461,19.512195587158203,-50.73170852661133
-54.63414764404297,15.609756469726562,-42.92683029174805
-50.73170852661133,11.707317352294922,-31.219512939453125
-54.63414764404297,-3.9024391174316406,-23.414634704589844
-58.53658676147461,-19.512195587158203,-23.414634704589844
-66.34146118164062,-35.121952056884766,-19.512195587158203
-70.24390411376953,-39.024391174316406,-19.512195587158203
-70.24390411376953,-35.121952056884766,-23.414634704589844
-74.1463394165039,-31.219512939453125,-23.414634704589844
-74.1463394165039,-27.317073822021484,-27.317073822021484
-78.04878234863281,-23.414634704589844,-31.219512939453125
-81.95121765136719,-23.414634704589844,-31.219512939453125
-81.95121765136719,-27.317073822021484,-31.219512939453125
-78.04878234863281,-27.317073822021484,-27.317073822021484
-74.1463394165039,-27.317073822021484,-27.317073822021484
-66.34146118164062,-27.317073822021484,-23.414634704589844
-54.63414764404297,-27.317073822021484,-15.609756469726562
-50.73170852661133,-27.317073822021484,-15.609756469726562
-50.73170852661133,-27.317073822021484,-11.707317352294922
-50.73170852661133,-27.317073822021484,-11.707317352294922
-46.82926940917969,-27.317073822021484,-11.707317352294922
-46.82926940917969,-23.414634704589844,-11.707317352294922
-46.82926940917969,-23.414634704589844,-11.707317352294922
-42.92683029174805,-15.609756469726562,-11.707317352294922
-39.024391174316406,-11.707317352294922,-15.609756469726562
-35.121952056884766,-7.804878234863281,-15.609756469726562
-35.121952056884766,-3.9024391174316406,-11.707317352294922
-31.219512939453125,-3.9024391174316406,-11.707317352294922
-27.317073822021484,0.0,-11.707317352294922
-27.317073822021484,3.9024391174316406,-11.707317352294922
-23.414634704589844,3.9024391174316406,-7.804878234863281
-19.512195587158203,3.9024391174316406,-7.804878234863281
-19.512195587158203,7.804878234863281,-7.804878234863281
-15.609756469726562,7.804878234863281,-7.804878234863281
-11.707317352294922,11.707317352294922,-7.804878234863281
-7.804878234863281,11.707317352294922,-3.9024391174316406
-3.9024391174316406,15.609756469726562,-3.9024391174316406
3.9024391174316406,19.512195587158203,-3.9024391174316406
7.804878234863281,23.414634704589844,0.0
15.609756469726562,31.219512939453125,0.0
23.414634704589844,42.92683029174805,0.0
35.121952056884766,58.53658676147461,3.9024391174316406
50.73170852661133,74.1463394165039,3.9024391174316406
62.43902587890625,85.8536605834961,7.804878234863281
66.34146118164062,93.65853881835938,11.707317352294922
74.1463394165039,101.46341705322266,15.609756469726562
78.04878234863281,97.56097412109375,15.609756469726562
85.8536605834961,85.8536605834961,23.414634704589844
93.65853881835938,62.43902587890625,35.121952056884766
93.65853881835938,39.024391174316406,42.92683029174805
101.46341705322266,19.512195587158203,54.63414764404297
109.26829528808594,7.804878234863281,70.24390411376953
113.17073059082031,7.804878234863281,74.1463394165039
117.07317352294922,11.707317352294922,74.1463394165039
140.48780822753906,50.73170852661133,46.82926940917969
160.0,97.56097412109375,19.512195587158203
132.68292236328125,128.78048706054688,39.024391174316406
81.95121765136719,54.63414764404297,42.92683029174805
0.0,-54.63414764404297,27.317073822021484
-62.43902587890625,-93.65853881835938,11.707317352294922
-66.34146118164062,-85.8536605834961,7.804878234863281
-46.82926940917969,-66.34146118164062,11.707317352294922
-35.121952056884766,-46.82926940917969,7.804878234863281
-31.219512939453125,-27.317073822021484,3.9024391174316406
-23.414634704589844,-19.512195587158203,7.804878234863281
-15.609756469726562,-11.707317352294922,3.9024391174316406
-15.609756469726562,-7.804878234863281,3.9024391174316406
-15.609756469726562,-7.804878234863281,0.0
-11.707317352294922,-3.9024391174316406,3.9024391174316406
-7.804878234863281,3.9024391174316406,3.9024391174316406
-3.9024391174316406,11.707317352294922,7.804878234863281
0.0,19.512195587158203,3.9024391174316406
3.9024391174316406,27.317073822021484,3.9024391174316406
3.9024391174316406,31.219512939453125,3.9024391174316406
3.9024391174316406,35.121952056884766,3.9024391174316406
3.9024391174316406,39.024391174316406,3.9024391174316406
11.707317352294922,50.73170852661133,3.9024391174316406
11.707317352294922,54.63414764404297,0.0
15.609756469726562,62.43902587890625,0.0
15.609756469726562,58.53658676147461,-3.9024391174316406
15.609756469726562,58.53658676147461,-3.9024391174316406
-62.43902587890625,46.82926940917969,-39.024391174316406
-50.73170852661133,-3.9024391174316406,-42.92683029174805
-39.024391174316406,35.121952056884766,-27.317073822021484
-54.63414764404297,42.92683029174805,-46.82926940917969
-62.43902587890625,23.414634704589844,-46.82926940917969
-62.43902587890625,19.512195587158203,-39.024391174316406
-62.43902587890625,15.609756469726562,-35.121952056884766
-62.43902587890625,11.707317352294922,-31.219512939453125
-62.43902587890625,0.0,-27.317073822021484
-66.34146118164062,-15.609756469726562,-23.414634704589844
-70.24390411376953,-19.512195587158203,-23.414634704589844
-74.1463394165039,-23.414634704589844,-27.317073822021484
-78.04878234863281,-27.317073822021484,-27.317073822021484
-74.1463394165039,-27.317073822021484,-27.317073822021484
-70.24390411376953,-19.512195587158203,-23.414634704589844
-66.34146118164062,-19.512195587158203,-19.512195587158203
-62.43902587890625,-19.512195587158203,-15.609756469726562
-62.43902587890625,-19.512195587158203,-15.609756469726562
-54.63414764404297,-19.512195587158203,-15.609756469726562
-54.63414764404297,-19.512195587158203,-15.609756469726562
-50.73170852661133,-19.512195587158203,-11.707317352294922
-46.82926940917969,-19.512195587158203,-11.707317352294922
-46.82926940917969,-19.512195587158203,-7.804878234863281
-42.92683029174805,-15.609756469726562,-7.804878234863281
-39.024391174316406,-11.707317352294922,-7.804878234863281
-42.92683029174805,-11.707317352294922,-7.804878234863281
-39.024391174316406,-11.707317352294922,-11.707317352294922
-39.024391174316406,-7.804878234863281,-11.707317352294922
-39.024391174316406,-7.804878234863281,-11.707317352294922
-35.121952056884766,-3.9024391174316406,-11.707317352294922
-31.219512939453125,0.0,-7.804878234863281
-27.317073822021484,3.9024391174316406,-7.804878234863281
-19.512195587158203,11.707317352294922,-7.804878234863281
-15.609756469726562,15.609756469726562,-7.804878234863281
-7.804878234863281,19.512195587158203,-7.804878234863281
-3.9024391174316406,27.317073822021484,-3.9024391174316406
3.9024391174316406,39.024391174316406,-3.9024391174316406
11.707317352294922,50.73170852661133,0.0
19.512195587158203,66.34146118164062,-3.9024391174316406
23.414634704589844,74.1463394165039,-3.9024391174316406
35.121952056884766,93.65853881835938,0.0
42.92683029174805,105.36585235595703,3.9024391174316406
54.63414764404297,109.26829528808594,7.804878234863281
62.43902587890625,81.95121765136719,23.414634704589844
66.34146118164062,50.73170852661133,27.317073822021484
66.34146118164062,23.414634704589844,35.121952056884766
66.34146118164062,11.707317352294922,35.121952056884766
62.43902587890625,11.707317352294922,27.317073822021484
54.63414764404297,7.804878234863281,19.512195587158203
46.82926940917969,0.0,19.512195587158203
46.82926940917969,-3.9024391174316406,19.512195587158203
42.92683029174805,-15.609756469726562,23.414634704589844
42.92683029174805,-23.414634704589844,31.219512939453125
42.92683029174805,-31.219512939453125,39.024391174316406
42.92683029174805,-39.024391174316406,46.82926940917969
42.92683029174805,-42.92683029174805,58.53658676147461
39.024391174316406,-35.121952056884766,58.53658676147461
35.121952056884766,11.707317352294922,7.804878234863281
11.707317352294922,3.9024391174316406,7.804878234863281
-3.9024391174316406,-35.121952056884766,3.9024391174316406
-35.121952056884766,-70.24390411376953,-3.9024391174316406
-46.82926940917969,-70.24390411376953,-7.804878234863281
-50.73170852661133,-58.53658676147461,-3.9024391174316406
-35.121952056884766,-42.92683029174805,3.9024391174316406
-27.317073822021484,-27.317073822021484,3.9024391174316406
-19.512195587158203,-11.707317352294922,0.0
-15.609756469726562,-7.804878234863281,3.9024391174316406
-7.804878234863281,-7.804878234863281,7.804878234863281
-3.9024391174316406,-3.9024391174316406,7.804878234863281
-3.9024391174316406,7.804878234863281,3.9024391174316406
0.0,15.609756469726562,7.804878234863281
7.804878234863281,31.219512939453125,7.804878234863281
11.707317352294922,35.121952056884766,11.707317352294922
11.707317352294922,31.219512939453125,15.609756469726562
3.9024391174316406,35.121952056884766,7.804878234863281
3.9024391174316406,46.82926940917969,0.0
11.707317352294922,50.73170852661133,3.9024391174316406
15.609756469726562,78.04878234863281,0.0
27.317073822021484,101.46341705322266,0.0
39.024391174316406,113.17073059082031,0.0
-109.26829528808594,117.07317352294922,-89.75609588623047
-54.63414764404297,35.121952056884766,-58.53658676147461
-27.317073822021484,62.43902587890625,-19.512195587158203
-39.024391174316406,74.1463394165039,-39.024391174316406
-54.63414764404297,39.024391174316406,-39.024391174316406
-39.024391174316406,23.414634704589844,-23.414634704589844
-31.219512939453125,11.707317352294922,-11.707317352294922
-35.121952056884766,-11.707317352294922,-3.9024391174316406
-50.73170852661133,-35.121952056884766,-3.9024391174316406
-58.53658676147461,-42.92683029174805,-7.804878234863281
-62.43902587890625,-42.92683029174805,-11.707317352294922
-70.24390411376953,-42.92683029174805,-15.609756469726562
-74.1463394165039,-39.024391174316406,-19.512195587158203
-70.24390411376953,-35.121952056884766,-19.512195587158203
-66.34146118164062,-27.317073822021484,-15.609756469726562
-58.53658676147461,-23.414634704589844,-15.609756469726562
-62.43902587890625,-23.414634704589844,-15.609756469726562
-62.43902587890625,-27.317073822021484,-15.609756469726562
-62.43902587890625,-27.317073822021484,-15.609756469726562
-62.43902587890625,-23.414634704589844,-11.707317352294922
-58.53658676147461,-19.512195587158203,-11.707317352294922
-54.63414764404297,-19.512195587158203,-11.707317352294922
-50.73170852661133,-19.512195587158203,-11.707317352294922
-50.73170852661133,-19.512195587158203,-11.707317352294922
-50.73170852661133,-19.512195587158203,-11.707317352294922
-50.73170852661133,-19.512195587158203,-11.707317352294922
-50.73170852661133,-19.512195587158203,-11.707317352294922
-46.82926940917969,-15.609756469726562,-7.804878234863281
-42.92683029174805,-11.707317352294922,-7.804878234863281
-39.024391174316406,-3.9024391174316406,-7.804878234863281
-31.219512939453125,0.0,-7.804878234863281
-31.219512939453125,3.9024391174316406,-7.804878234863281
-31.219512939453125,3.9024391174316406,-7.804878234863281
-27.317073822021484,3.9024391174316406,-7.804878234863281
-23.414634704589844,7.804878234863281,-7.804878234863281
-23.414634704589844,7.804878234863281,-7.804878234863281
-19.512195587158203,11.707317352294922,-7.804878234863281
-11.707317352294922,15.609756469726562,-3.9024391174316406
-3.9024391174316406,23.414634704589844,-3.9024391174316406
3.9024391174316406,27.317073822021484,0.0
7.804878234863281,31.219512939453125,0.0
15.609756469726562,39.024391174316406,0.0
27.317073822021484,50.73170852661133,0.0
39.024391174316406,66.34146118164062,3.9024391174316406
50.73170852661133,78.04878234863281,7.804878234863281
66.34146118164062,93.65853881835938,11.707317352294922
74.1463394165039,97.56097412109375,15.609756469726562
81.95121765136719,105.36585235595703,19.512195587158203
85.8536605834961,97.56097412109375,23.414634704589844
89.75609588623047,81.95121765136719,31.219512939453125
93.65853881835938,54.63414764404297,46.82926940917969
97.56097412109375,23.414634704589844,54.63414764404297
97.56097412109375,3.9024391174316406,66.34146118164062
97.56097412109375,-3.9024391174316406,70.24390411376953
97.56097412109375,3.9024391174316406,66.34146118164062
89.75609588623047,3.9024391174316406,58.53658676147461
85.8536605834961,54.63414764404297,-7.804878234863281
85.8536605834961,85.8536605834961,-23.414634704589844
66.34146118164062,81.95121765136719,11.707317352294922
31.219512939453125,0.0,19.512195587158203
-42.92683029174805,-93.65853881835938,11.707317352294922
-85.8536605834961,-117.07317352294922,0.0
-70.24390411376953,-97.56097412109375,3.9024391174316406
-46.82926940917969,-74.1463394165039,3.9024391174316406
-39.024391174316406,-58.53658676147461,0.0
-39.024391174316406,-50.73170852661133,0.0
-39.024391174316406,-50.73170852661133,0.0
-35.121952056884766,-46.82926940917969,0.0
-31.219512939453125,-42.92683029174805,0.0
-19.512195587158203,-27.317073822021484,-3.9024391174316406
-11.707317352294922,-11.707317352294922,-3.9024391174316406
-7.804878234863281,0.0,-3.9024391174316406
0.0,11.707317352294922,0.0
3.9024391174316406,23.414634704589844,0.0
7.804878234863281,31.219512939453125,0.0
7.804878234863281,31.219512939453125,0.0
3.9024391174316406,31.219512939453125,-3.9024391174316406
3.9024391174316406,35.121952056884766,-7.804878234863281
3.9024391174316406,42.92683029174805,-7.804878234863281
3.9024391174316406,46.82926940917969,-7.804878234863281
0.0,42.92683029174805,-7.804878234863281
-3.9024391174316406,39.024391174316406,-11.707317352294922
0.0,42.92683029174805,-7.804878234863281
-23.414634704589844,54.63414764404297,-31.219512939453125
-39.024391174316406,15.609756469726562,-35.121952056884766
-15.609756469726562,35.121952056884766,-11.707317352294922
-35.121952056884766,50.73170852661133,-35.121952056884766
-46.82926940917969,39.024391174316406,-35.121952056884766
-46.82926940917969,39.024391174316406,-39.024391174316406
-46.82926940917969,35.121952056884766,-39.024391174316406
-46.82926940917969,27.317073822021484,-39.024391174316406
-46.82926940917969,23.414634704589844,-35.121952056884766
-46.82926940917969,19.512195587158203,-35.121952056884766
-46.82926940917969,15.609756469726562,-31.219512939453125
-50.73170852661133,11.707317352294922,-27.317073822021484
-54.63414764404297,7.804878234863281,-23.414634704589844
-50.73170852661133,7.804878234863281,-23.414634704589844
-50.73170852661133,3.9024391174316406,-19.512195587158203
-50.73170852661133,0.0,-19.512195587158203
-54.63414764404297,-7.804878234863281,-19.512195587158203
-54.63414764404297,-11.707317352294922,-19.512195587158203
-54.63414764404297,-15.609756469726562,-15.609756469726562
-50.73170852661133,-11.707317352294922,-15.609756469726562
-46.82926940917969,-11.707317352294922,-11.707317352294922
-46.82926940917969,-15.609756469726562,-7.804878234863281
-42.92683029174805,-15.609756469726562,-7.804878234863281
-46.82926940917969,-15.609756469726562,-7.804878234863281
-46.82926940917969,-15.609756469726562,-7.804878234863281
-46.82926940917969,-15.609756469726562,-7.804878234863281
-46.82926940917969,-15.609756469726562,-7.804878234863281
-42.92683029174805,-11.707317352294922,-7.804878234863281
-39.024391174316406,-7.804878234863281,-7.804878234863281
-35.121952056884766,-3.9024391174316406,-7.804878234863281
-31.219512939453125,-3.9024391174316406,-3.9024391174316406
-31.219512939453125,0.0,-3.9024391174316406
-23.414634704589844,0.0,-3.9024391174316406
-19.512195587158203,3.9024391174316406,-3.9024391174316406
-15.609756469726562,3.9024391174316406,-3.9024391174316406
-15.609756469726562,3.9024391174316406,-3.9024391174316406
-11.707317352294922,7.804878234863281,-3.9024391174316406
-7.804878234863281,7.804878234863281,0.0
-3.9024391174316406,11.707317352294922,0.0
0.0,11.707317352294922,0.0
3.9024391174316406,15.609756469726562,3.9024391174316406
7.804878234863281,19.512195587158203,3.9024391174316406
15.609756469726562,27.317073822021484,7.804878234863281
19.512195587158203,31.219512939453125,7.804878234863281
27.317073822021484,39.024391174316406,11.707317352294922
31.219512939453125,46.82926940917969,11.707317352294922
35.121952056884766,58.53658676147461,11.707317352294922
42.92683029174805,70.24390411376953,11.707317352294922
46.82926940917969,74.1463394165039,19.512195587158203
50.73170852661133,62.43902587890625,23.414634704589844
54.63414764404297,54.63414764404297,27.317073822021484
58.53658676147461,27.317073822021484,35.121952056884766
70.24390411376953,3.9024391174316406,42.92683029174805
85.8536605834961,0.0,54.63414764404297
101.46341705322266,0.0,66.34146118164062
120.9756088256836,11.707317352294922,70.24390411376953
140.48780822753906,54.63414764404297,50.73170852661133
183.41464233398438,152.19512939453125,0.0
163.90243530273438,171.7073211669922,39.024391174316406
109.26829528808594,74.1463394165039,31.219512939453125
19.512195587158203,-54.63414764404297,19.512195587158203
-19.512195587158203,-85.8536605834961,11.707317352294922
-39.024391174316406,-85.8536605834961,0.0
-19.512195587158203,-62.43902587890625,3.9024391174316406
-11.707317352294922,-42.92683029174805,7.804878234863281
-19.512195587158203,-42.92683029174805,3.9024391174316406
-35.121952056884766,-54.63414764404297,0.0
-42.92683029174805,-58.53658676147461,-3.9024391174316406
-46.82926940917969,-58.53658676147461,-3.9024391174316406
-42.92683029174805,-50.73170852661133,-3.9024391174316406
-42.92683029174805,-39.024391174316406,-3.9024391174316406
-39.024391174316406,-31.219512939453125,-3.9024391174316406
-31.219512939453125,-23.414634704589844,-3.9024391174316406
-19.512195587158203,-3.9024391174316406,-3.9024391174316406
-7.804878234863281,15.609756469726562,0.0
0.0,27.317073822021484,0.0
0.0,31.219512939453125,0.0
3.9024391174316406,35.121952056884766,-3.9024391174316406
7.804878234863281,35.121952056884766,-3.9024391174316406
11.707317352294922,42.92683029174805,-3.9024391174316406
11.707317352294922,50.73170852661133,-3.9024391174316406
15.609756469726562,50.73170852661133,-3.9024391174316406
15.609756469726562,50.73170852661133,-3.9024391174316406
11.707317352294922,50.73170852661133,-3.9024391174316406
-97.56097412109375,50.73170852661133,-70.24390411376953
-74.1463394165039,-7.804878234863281,-58.53658676147461
-46.82926940917969,42.92683029174805,-35.121952056884766
-66.34146118164062,46.82926940917969,-50.73170852661133
-70.24390411376953,19.512195587158203,-46.82926940917969
-62.43902587890625,15.609756469726562,-39.024391174316406
-50.73170852661133,19.512195587158203,-27.317073822021484
-46.82926940917969,7.804878234863281,-19.512195587158203
-54.63414764404297,-11.707317352294922,-15.609756469726562
-58.53658676147461,-15.609756469726562,-15.609756469726562
-66.34146118164062,-23.414634704589844,-15.609756469726562
-74.1463394165039,-31.219512939453125,-15.609756469726562
-78.04878234863281,-31.219512939453125,-15.609756469726562
-74.1463394165039,-31.219512939453125,-15.609756469726562
-70.24390411376953,-31.219512939453125,-11.707317352294922
-70.24390411376953,-31.219512939453125,-11.707317352294922
-66.34146118164062,-31.219512939453125,-11.707317352294922
-62.43902587890625,-27.317073822021484,-11.707317352294922
-58.53658676147461,-23.414634704589844,-11.707317352294922
-58.53658676147461,-23.414634704589844,-11.707317352294922
-62.43902587890625,-23.414634704589844,-11.707317352294922
-58.53658676147461,-23.414634704589844,-11.707317352294922
-54.63414764404297,-19.512195587158203,-11.707317352294922
-50.73170852661133,-19.512195587158203,-11.707317352294922
-46.82926940917969,-19.512195587158203,-11.707317352294922
-42.92683029174805,-19.512195587158203,-11.707317352294922
-39.024391174316406,-19.512195587158203,-11.707317352294922
-35.121952056884766,-15.609756469726562,-11.707317352294922
-31.219512939453125,-15.609756469726562,-15.609756469726562
-27.317073822021484,-15.609756469726562,-15.609756469726562
-23.414634704589844,-15.609756469726562,-19.512195587158203
-23.414634704589844,-15.609756469726562,-19.512195587158203
-19.512195587158203,-11.707317352294922,-19.512195587158203
-15.609756469726562,-7.804878234863281,-19.512195587158203
-11.707317352294922,-7.804878234863281,-19.512195587158203
-7.804878234863281,-11.707317352294922,-15.609756469726562
-3.9024391174316406,-27.317073822021484,-11.707317352294922
-11.707317352294922,-35.121952056884766,0.0
-31.219512939453125,-35.121952056884766,27.317073822021484
-39.024391174316406,-39.024391174316406,39.024391174316406
-35.121952056884766,-50.73170852661133,39.024391174316406
-35.121952056884766,-58.53658676147461,35.121952056884766
-42.92683029174805,-62.43902587890625,35.121952056884766
-62.43902587890625,-62.43902587890625,31.219512939453125
-78.04878234863281,-54.63414764404297,31.219512939453125
-85.8536605834961,-42.92683029174805,31.219512939453125
-85.8536605834961,-23.414634704589844,35.121952056884766
-50.73170852661133,15.609756469726562,35.121952056884766
-42.92683029174805,42.92683029174805,39.024391174316406
-46.82926940917969,62.43902587890625,42.92683029174805
-46.82926940917969,78.04878234863281,42.92683029174805
-50.73170852661133,93.65853881835938,46.82926940917969
-46.82926940917969,113.17073059082031,54.63414764404297
-42.92683029174805,120.9756088256836,54.63414764404297
-39.024391174316406,140.48780822753906,62.43902587890625
-35.121952056884766,160.0,66.34146118164062
-27.317073822021484,171.7073211669922,74.1463394165039
-23.414634704589844,175.60975646972656,78.04878234863281
-19.512195587158203,171.7073211669922,81.95121765136719
-19.512195587158203,171.7073211669922,89.75609588623047
-19.512195587158203,163.90243530273438,85.8536605834961
-27.317073822021484,152.19512939453125,74.1463394165039
0.0,0.0,0.0
0.0,0.0,0.0
-54.63414764404297,97.56097412109375,42.92683029174805
-39.024391174316406,81.95121765136719,42.92683029174805
-19.512195587158203,78.04878234863281,42.92683029174805
-11.707317352294922,74.1463394165039,42.92683029174805
-11.707317352294922,62.43902587890625,35.121952056884766
-15.609756469726562,46.82926940917969,23.414634704589844
-23.414634704589844,27.317073822021484,7.804878234863281
-27.317073822021484,7.804878234863281,-3.9024391174316406
-23.414634704589844,-15.609756469726562,-19.512195587158203
-27.317073822021484,-31.219512939453125,-31.219512939453125
-27.317073822021484,-39.024391174316406,-39.024391174316406
-31.219512939453125,-46.82926940917969,-54.63414764404297
-31.219512939453125,-54.63414764404297,-62.43902587890625
-35.121952056884766,-62.43902587890625,-70.24390411376953
-35.121952056884766,-66.34146118164062,-78.04878234863281
-39.024391174316406,-58.53658676147461,-132.68292236328125
-19.512195587158203,-156.09756469726562,-343.4146423339844
-97.56097412109375,-183.41464233398438,-191.21951293945312
7.804878234863281,-101.46341705322266,-50.73170852661133
124.8780517578125,-3.9024391174316406,15.609756469726562
117.07317352294922,15.609756469726562,-15.609756469726562
85.8536605834961,3.9024391174316406,-23.414634704589844
58.53658676147461,-3.9024391174316406,-23.414634704589844
81.95121765136719,7.804878234863281,-19.512195587158203
101.46341705322266,19.512195587158203,-7.804878234863281
109.26829528808594,23.414634704589844,-7.804878234863281
113.17073059082031,7.804878234863281,-3.9024391174316406
105.36585235595703,-19.512195587158203,-15.609756469726562
81.95121765136719,-58.53658676147461,-31.219512939453125
50.73170852661133,-93.65853881835938,-42.92683029174805
42.92683029174805,-89.75609588623047,-46.82926940917969
46.82926940917969,-50.73170852661133,-50.73170852661133
46.82926940917969,-39.024391174316406,-50.73170852661133
39.024391174316406,-31.219512939453125,-54.63414764404297
50.73170852661133,-3.9024391174316406,-74.1463394165039
101.46341705322266,58.53658676147461,-89.75609588623047
81.95121765136719,70.24390411376953,-89.75609588623047
66.34146118164062,74.1463394165039,-109.26829528808594
70.24390411376953,81.95121765136719,-136.5853729248047
89.75609588623047,81.95121765136719,-179.51219177246094
206.8292694091797,58.53658676147461,-253.65853881835938
222.43902587890625,58.53658676147461,-308.2926940917969
222.43902587890625,62.43902587890625,-339.51220703125
249.756103515625,66.34146118164062,-351.2195129394531
320.0,19.512195587158203,-362.9268493652344
339.51220703125,-210.73170471191406,-378.5365905761719
265.3658447265625,-323.9024353027344,-378.5365905761719
167.8048858642578,-171.7073211669922,-300.4878234863281
136.5853729248047,-113.17073059082031,-218.53659057617188
128.78048706054688,-124.8780517578125,-191.21951293945312
101.46341705322266,-152.19512939453125,-167.8048858642578
97.56097412109375,-171.7073211669922,-132.68292236328125
136.5853729248047,-144.39024353027344,-81.95121765136719
160.0,-117.07317352294922,-109.26829528808594
199.02439880371094,-105.36585235595703,-132.68292236328125
253.65853881835938,-3.9024391174316406,-179.51219177246094
214.6341552734375,7.804878234863281,-195.1219482421875
160.0,-19.512195587158203,-183.41464233398438
117.07317352294922,-15.609756469726562,-156.09756469726562
128.78048706054688,11.707317352294922,-113.17073059082031
109.26829528808594,81.95121765136719,-74.1463394165039
66.34146118164062,58.53658676147461,-74.1463394165039
89.75609588623047,62.43902587890625,-62.43902587890625
117.07317352294922,62.43902587890625,-62.43902587890625
113.17073059082031,66.34146118164062,-66.34146118164062
117.07317352294922,70.24390411376953,-74.1463394165039
195.1219482421875,62.43902587890625,-109.26829528808594
257.56097412109375,81.95121765136719,-148.2926788330078
253.65853881835938,93.65853881835938,-148.2926788330078
195.1219482421875,81.95121765136719,-128.78048706054688
124.8780517578125,62.43902587890625,-97.56097412109375
113.17073059082031,50.73170852661133,-62.43902587890625
128.78048706054688,46.82926940917969,-39.024391174316406
132.68292236328125,46.82926940917969,-23.414634704589844
132.68292236328125,50.73170852661133,-19.512195587158203
140.48780822753906,46.82926940917969,-15.609756469726562
144.39024353027344,50.73170852661133,-15.609756469726562
144.39024353027344,50.73170852661133,-15.609756469726562
140.48780822753906,42.92683029174805,-23.414634704589844
144.39024353027344,23.414634704589844,-35.121952056884766
160.0,11.707317352294922,-54.63414764404297
171.7073211669922,0.0,-70.24390411376953
183.41464233398438,-7.804878234863281,-85.8536605834961
195.1219482421875,-15.609756469726562,-85.8536605834961
218.53659057617188,-31.219512939453125,-81.95121765136719
249.756103515625,-66.34146118164062,-70.24390411376953
265.3658447265625,-81.95121765136719,-58.53658676147461
300.4878234863281,-101.46341705322266,-35.121952056884766
296.5853576660156,-93.65853881835938,-3.9024391174316406
226.34146118164062,-46.82926940917969,0.0
175.60975646972656,-35.121952056884766,-15.609756469726562
148.2926788330078,-46.82926940917969,-46.82926940917969
136.5853729248047,-74.1463394165039,-81.95121765136719
93.65853881835938,-54.63414764404297,-140.48780822753906
23.414634704589844,-3.9024391174316406,-179.51219177246094
-15.609756469726562,7.804878234863281,-183.41464233398438
-15.609756469726562,-3.9024391174316406,-163.90243530273438
-11.707317352294922,-7.804878234863281,-152.19512939453125
3.9024391174316406,-3.9024391174316406,-117.07317352294922
15.609756469726562,0.0,-81.95121765136719
23.414634704589844,3.9024391174316406,-50.73170852661133
27.317073822021484,0.0,-19.512195587158203
58.53658676147461,-58.53658676147461,15.609756469726562
39.024391174316406,-31.219512939453125,27.317073822021484
54.63414764404297,-70.24390411376953,39.024391174316406
74.1463394165039,-117.07317352294922,39.024391174316406
66.34146118164062,-132.68292236328125,39.024391174316406
62.43902587890625,-160.0,50.73170852661133
62.43902587890625,-175.60975646972656,66.34146118164062
81.95121765136719,-218.53659057617188,101.46341705322266
109.26829528808594,-249.756103515625,128.78048706054688
128.78048706054688,-261.4634094238281,136.5853729248047
124.8780517578125,-249.756103515625,120.9756088256836
124.8780517578125,-234.14634704589844,109.26829528808594
128.78048706054688,-218.53659057617188,101.46341705322266
140.48780822753906,-210.73170471191406,85.8536605834961
160.0,-187.31707763671875,78.04878234863281
179.51219177246094,-152.19512939453125,66.34146118164062
206.8292694091797,-101.46341705322266,54.63414764404297
218.53659057617188,-74.1463394165039,46.82926940917969
202.9268341064453,-39.024391174316406,27.317073822021484
105.36585235595703,-35.121952056884766,-3.9024391174316406
15.609756469726562,-42.92683029174805,-15.609756469726562
0.0,-46.82926940917969,-23.414634704589844
27.317073822021484,-62.43902587890625,-31.219512939453125
42.92683029174805,-81.95121765136719,-31.219512939453125
42.92683029174805,-89.75609588623047,-31.219512939453125
39.024391174316406,-89.75609588623047,-23.414634704589844
31.219512939453125,-81.95121765136719,-19.512195587158203
23.414634704589844,-74.1463394165039,-11.707317352294922
23.414634704589844,-70.24390411376953,-11.707317352294922
19.512195587158203,-74.1463394165039,-7.804878234863281
19.512195587158203,-70.24390411376953,-3.9024391174316406
27.317073822021484,-70.24390411376953,0.0
31.219512939453125,-66.34146118164062,3.9024391174316406
35.121952056884766,-54.63414764404297,3.9024391174316406
35.121952056884766,-46.82926940917969,7.804878234863281
35.121952056884766,-39.024391174316406,3.9024391174316406
39.024391174316406,-39.024391174316406,0.0
39.024391174316406,-39.024391174316406,-3.9024391174316406
27.317073822021484,-35.121952056884766,-3.9024391174316406
19.512195587158203,-35.121952056884766,0.0
11.707317352294922,-35.121952056884766,-7.804878234863281
-3.9024391174316406,-31.219512939453125,-19.512195587158203
-19.512195587158203,-27.317073822021484,-23.414634704589844
-35.121952056884766,-19.512195587158203,-27.317073822021484
-35.121952056884766,-23.414634704589844,-27.317073822021484
-35.121952056884766,-23.414634704589844,-27.317073822021484
-46.82926940917969,-7.804878234863281,-31.219512939453125
-78.04878234863281,19.512195587158203,-35.121952056884766
-105.36585235595703,39.024391174316406,-35.121952056884766
-105.36585235595703,50.73170852661133,-35.121952056884766
-105.36585235595703,50.73170852661133,-35.121952056884766
-105.36585235595703,54.63414764404297,-31.219512939453125
-113.17073059082031,62.43902587890625,-27.317073822021484
-136.5853729248047,78.04878234863281,-23.414634704589844
-167.8048858642578,105.36585235595703,-23.414634704589844
-202.9268341064453,140.48780822753906,-27.317073822021484
-238.0487823486328,175.60975646972656,-31.219512939453125
-253.65853881835938,187.31707763671875,-39.024391174316406
-245.85366821289062,179.51219177246094,-46.82926940917969
-222.43902587890625,156.09756469726562,-46.82926940917969
-206.8292694091797,144.39024353027344,-46.82926940917969
-171.7073211669922,117.07317352294922,-50.73170852661133
-132.68292236328125,78.04878234863281,-46.82926940917969
-113.17073059082031,66.34146118164062,-42.92683029174805
-109.26829528808594,62.43902587890625,-39.024391174316406
-117.07317352294922,66.34146118164062,-39.024391174316406
-124.8780517578125,74.1463394165039,-39.024391174316406
-136.5853729248047,78.04878234863281,-39.024391174316406
-144.39024353027344,81.95121765136719,-42.92683029174805
-156.09756469726562,85.8536605834961,-50.73170852661133
-160.0,81.95121765136719,-54.63414764404297
-144.39024353027344,70.24390411376953,-54.63414764404297
-117.07317352294922,50.73170852661133,-62.43902587890625
-105.36585235595703,39.024391174316406,-62.43902587890625
-97.56097412109375,27.317073822021484,-66.34146118164062
-89.75609588623047,19.512195587158203,-66.34146118164062
-81.95121765136719,11.707317352294922,-58.53658676147461
-70.24390411376953,3.9024391174316406,-58.53658676147461
-66.34146118164062,-3.9024391174316406,-62.43902587890625
-66.34146118164062,-11.707317352294922,-62.43902587890625
-62.43902587890625,-19.512195587158203,-62.43902587890625
-58.53658676147461,-27.317073822021484,-62.43902587890625
-58.53658676147461,-23.414634704589844,-58.53658676147461
-54.63414764404297,-23.414634704589844,-54.63414764404297
-54.63414764404297,-27.317073822021484,-58.53658676147461
-46.82926940917969,-27.317073822021484,-58.53658676147461
-39.024391174316406,-27.317073822021484,-50.73170852661133
-31.219512939453125,-27.317073822021484,-50.73170852661133
-31.219512939453125,-23.414634704589844,-50.73170852661133
-31.219512939453125,-19.512195587158203,-50.73170852661133
-35.121952056884766,-15.609756469726562,-58.53658676147461
-31.219512939453125,-15.609756469726562,-66.34146118164062
-35.121952056884766,-15.609756469726562,-74.1463394165039
-35.121952056884766,-15.609756469726562,-78.04878234863281
-35.121952056884766,-19.512195587158203,-89.75609588623047
-35.121952056884766,-31.219512939453125,-105.36585235595703
-39.024391174316406,-35.121952056884766,-109.26829528808594
-31.219512939453125,-39.024391174316406,-109.26829528808594
-27.317073822021484,-39.024391174316406,-93.65853881835938
-23.414634704589844,-39.024391174316406,-85.8536605834961
-23.414634704589844,-35.121952056884766,-78.04878234863281
-19.512195587158203,-39.024391174316406,-85.8536605834961
-19.512195587158203,-35.121952056884766,-89.75609588623047
-19.512195587158203,-31.219512939453125,-81.95121765136719
-19.512195587158203,-31.219512939453125,-78.04878234863281
-15.609756469726562,-27.317073822021484,-70.24390411376953
-15.609756469726562,-23.414634704589844,-58.53658676147461
-11.707317352294922,-19.512195587158203,-54.63414764404297
-7.804878234863281,-15.609756469726562,-46.82926940917969
-11.707317352294922,-7.804878234863281,-35.121952056884766
-11.707317352294922,-3.9024391174316406,-27.317073822021484
-11.707317352294922,0.0,-23.414634704589844
-15.609756469726562,0.0,-19.512195587158203
-15.609756469726562,0.0,-15.609756469726562
-19.512195587158203,0.0,-15.609756469726562
-19.512195587158203,0.0,-15.609756469726562
-15.609756469726562,7.804878234863281,-19.512195587158203
-11.707317352294922,15.609756469726562,-15.609756469726562
11.707317352294922,42.92683029174805,-27.317073822021484
19.512195587158203,70.24390411376953,-23.414634704589844
35.121952056884766,109.26829528808594,-19.512195587158203
35.121952056884766,160.0,7.804878234863281
42.92683029174805,187.31707763671875,27.317073822021484
66.34146118164062,152.19512939453125,23.414634704589844
89.75609588623047,42.92683029174805,0.0
85.8536605834961,19.512195587158203,-27.317073822021484
78.04878234863281,42.92683029174805,-31.219512939453125
89.75609588623047,120.9756088256836,-31.219512939453125
101.46341705322266,179.51219177246094,15.609756469726562
58.53658676147461,187.31707763671875,31.219512939453125
35.121952056884766,206.8292694091797,35.121952056884766
15.609756469726562,218.53659057617188,31.219512939453125
-15.609756469726562,214.6341552734375,23.414634704589844
-23.414634704589844,206.8292694091797,19.512195587158203
-15.609756469726562,183.41464233398438,11.707317352294922
-7.804878234863281,163.90243530273438,11.707317352294922
-3.9024391174316406,156.09756469726562,19.512195587158203
3.9024391174316406,148.2926788330078,27.317073822021484
11.707317352294922,140.48780822753906,31.219512939453125
11.707317352294922,132.68292236328125,27.317073822021484
0.0,128.78048706054688,19.512195587158203
-7.804878234863281,124.8780517578125,15.609756469726562
-19.512195587158203,117.07317352294922,11.707317352294922
-23.414634704589844,101.46341705322266,7.804878234863281
-23.414634704589844,81.95121765136719,7.804878234863281
-23.414634704589844,54.63414764404297,11.707317352294922
-19.512195587158203,31.219512939453125,11.707317352294922
-15.609756469726562,19.512195587158203,11.707317352294922
-15.609756469726562,3.9024391174316406,7.804878234863281
-15.609756469726562,3.9024391174316406,3.9024391174316406
-15.609756469726562,3.9024391174316406,3.9024391174316406
-19.512195587158203,11.707317352294922,0.0
-19.512195587158203,11.707317352294922,0.0
-19.512195587158203,15.609756469726562,0.0
-19.512195587158203,15.609756469726562,0.0
-19.512195587158203,19.512195587158203,0.0
-19.512195587158203,19.512195587158203,0.0
-19.512195587158203,19.512195587158203,0.0
-19.512195587158203,19.512195587158203,0.0
-15.609756469726562,19.512195587158203,0.0
-15.609756469726562,15.609756469726562,0.0
-11.707317352294922,15.609756469726562,0.0
-11.707317352294922,15.609756469726562,3.9024391174316406
-7.804878234863281,11.707317352294922,7.804878234863281
-7.804878234863281,15.609756469726562,7.804878234863281
-7.804878234863281,15.609756469726562,7.804878234863281
-7.804878234863281,19.512195587158203,11.707317352294922
-3.9024391174316406,19.512195587158203,11.707317352294922
-3.9024391174316406,19.512195587158203,11.707317352294922
-3.9024391174316406,19.512195587158203,11.707317352294922
-3.9024391174316406,23.414634704589844,11.707317352294922
-3.9024391174316406,23.414634704589844,11.707317352294922
-3.9024391174316406,23.414634704589844,11.707317352294922
-3.9024391174316406,23.414634704589844,7.804878234863281
-3.9024391174316406,23.414634704589844,3.9024391174316406
-7.804878234863281,19.512195587158203,3.9024391174316406
-7.804878234863281,19.512195587158203,0.0
-7.804878234863281,15.609756469726562,0.0
-7.804878234863281,15.609756469726562,0.0
-7.804878234863281,15.609756469726562,-3.9024391174316406
-7.804878234863281,15.609756469726562,-3.9024391174316406
-7.804878234863281,15.609756469726562,-7.804878234863281
-7.804878234863281,11.707317352294922,-7.804878234863281
-7.804878234863281,11.707317352294922,-7.804878234863281
-7.804878234863281,11.707317352294922,-3.9024391174316406
-7.804878234863281,11.707317352294922,-3.9024391174316406
-7.804878234863281,11.707317352294922,0.0
-7.804878234863281,11.707317352294922,0.0
-7.804878234863281,11.707317352294922,0.0
-7.804878234863281,11.707317352294922,3.9024391174316406
-7.804878234863281,11.707317352294922,3.9024391174316406
-7.804878234863281,11.707317352294922,0.0
-7.804878234863281,11.707317352294922,0.0
-7.804878234863281,11.707317352294922,0.0
-7.804878234863281,11.707317352294922,0.0
-7.804878234863281,7.804878234863281,0.0
-7.804878234863281,7.804878234863281,0.0
-7.804878234863281,7.804878234863281,-3.9024391174316406
-3.9024391174316406,3.9024391174316406,-7.804878234863281
-3.9024391174316406,0.0,-7.804878234863281
-3.9024391174316406,-3.9024391174316406,-7.804878234863281
-3.9024391174316406,-7.804878234863281,-11.707317352294922
-3.9024391174316406,-7.804878234863281,-11.707317352294922
-3.9024391174316406,-3.9024391174316406,-7.804878234863281
-7.804878234863281,-3.9024391174316406,-7.804878234863281
-7.804878234863281,0.0,-7.804878234863281
-7.804878234863281,3.9024391174316406,-3.9024391174316406
-7.804878234863281,3.9024391174316406,-3.9024391174316406
-7.804878234863281,3.9024391174316406,-3.9024391174316406
-7.804878234863281,3.9024391174316406,-3.9024391174316406
-3.9024391174316406,0.0,-7.804878234863281
0.0,-7.804878234863281,-11.707317352294922
7.804878234863281,-7.804878234863281,0.0
15.609756469726562,-11.707317352294922,23.414634704589844
19.512195587158203,-19.512195587158203,11.707317352294922
15.609756469726562,-39.024391174316406,-11.707317352294922
15.609756469726562,-54.63414764404297,-27.317073822021484
15.609756469726562,-62.43902587890625,-27.317073822021484
15.609756469726562,-70.24390411376953,-19.512195587158203
15.609756469726562,-74.1463394165039,-11.707317352294922
19.512195587158203,-74.1463394165039,-7.804878234863281
19.512195587158203,-78.04878234863281,-3.9024391174316406
19.512195587158203,-81.95121765136719,-3.9024391174316406
19.512195587158203,-81.95121765136719,-3.9024391174316406
23.414634704589844,-93.65853881835938,-3.9024391174316406
23.414634704589844,-101.46341705322266,-3.9024391174316406
23.414634704589844,-117.07317352294922,0.0
23.414634704589844,-128.78048706054688,-7.804878234863281
31.219512939453125,-132.68292236328125,-15.609756469726562
50.73170852661133,-120.9756088256836,-31.219512939453125
42.92683029174805,-101.46341705322266,-31.219512939453125
35.121952056884766,-85.8536605834961,-35.121952056884766
31.219512939453125,-74.1463394165039,-35.121952056884766
31.219512939453125,-74.1463394165039,-27.317073822021484
31.219512939453125,-81.95121765136719,-23.414634704589844
42.92683029174805,-97.56097412109375,-19.512195587158203
54.63414764404297,-105.36585235595703,-19.512195587158203
62.43902587890625,-97.56097412109375,-15.609756469726562
58.53658676147461,-78.04878234863281,-15.609756469726562
66.34146118164062,-62.43902587890625,-11.707317352294922
89.75609588623047,-58.53658676147461,-11.707317352294922
117.07317352294922,-31.219512939453125,-19.512195587158203
113.17073059082031,-23.414634704589844,-19.512195587158203
93.65853881835938,-19.512195587158203,-15.609756469726562
81.95121765136719,-19.512195587158203,-15.609756469726562
74.1463394165039,-19.512195587158203,-19.512195587158203
62.43902587890625,-11.707317352294922,-19.512195587158203
62.43902587890625,-3.9024391174316406,-23.414634704589844
58.53658676147461,-3.9024391174316406,-27.317073822021484
54.63414764404297,0.0,-31.219512939453125
50.73170852661133,3.9024391174316406,-35.121952056884766
35.121952056884766,-3.9024391174316406,-35.121952056884766
39.024391174316406,0.0,-39.024391174316406
35.121952056884766,0.0,-42.92683029174805
23.414634704589844,-3.9024391174316406,-39.024391174316406
19.512195587158203,-3.9024391174316406,-39.024391174316406
19.512195587158203,0.0,-39.024391174316406
23.414634704589844,3.9024391174316406,-39.024391174316406
23.414634704589844,7.804878234863281,-35.121952056884766
11.707317352294922,3.9024391174316406,-27.317073822021484
0.0,0.0,-23.414634704589844
-3.9024391174316406,0.0,-19.512195587158203
-3.9024391174316406,0.0,-19.512195587158203
-7.804878234863281,0.0,-15.609756469726562
-11.707317352294922,0.0,-15.609756469726562
-15.609756469726562,-3.9024391174316406,-11.707317352294922
-11.707317352294922,0.0,-15.609756469726562
-11.707317352294922,0.0,-11.707317352294922
-7.804878234863281,0.0,-15.609756469726562
-7.804878234863281,0.0,-11.707317352294922
0.0,3.9024391174316406,-15.609756469726562
0.0,3.9024391174316406,-11.707317352294922
0.0,3.9024391174316406,-11.707317352294922
3.9024391174316406,7.804878234863281,-7.804878234863281
3.9024391174316406,7.804878234863281,-3.9024391174316406
3.9024391174316406,11.707317352294922,0.0
0.0,11.707317352294922,3.9024391174316406
-3.9024391174316406,15.609756469726562,7.804878234863281
-7.804878234863281,11.707317352294922,11.707317352294922
-15.609756469726562,7.804878234863281,15.609756469726562
-19.512195587158203,3.9024391174316406,23.414634704589844
-23.414634704589844,-3.9024391174316406,23.414634704589844
-31.219512939453125,-11.707317352294922,23.414634704589844
-35.121952056884766,-23.414634704589844,19.512195587158203
-35.121952056884766,-27.317073822021484,11.707317352294922
-35.121952056884766,-27.317073822021484,7.804878234863281
-35.121952056884766,-15.609756469726562,-3.9024391174316406
-31.219512939453125,-3.9024391174316406,-15.609756469726562
-31.219512939453125,0.0,-19.512195587158203
-19.512195587158203,11.707317352294922,-31.219512939453125
-3.9024391174316406,15.609756469726562,-50.73170852661133
0.0,27.317073822021484,-54.63414764404297
85.8536605834961,85.8536605834961,-124.8780517578125
89.75609588623047,70.24390411376953,-101.46341705322266
35.121952056884766,62.43902587890625,-58.53658676147461
3.9024391174316406,50.73170852661133,-19.512195587158203
3.9024391174316406,62.43902587890625,3.9024391174316406
11.707317352294922,70.24390411376953,7.804878234863281
7.804878234863281,62.43902587890625,7.804878234863281
7.804878234863281,58.53658676147461,7.804878234863281
3.9024391174316406,50.73170852661133,3.9024391174316406
0.0,42.92683029174805,0.0
-3.9024391174316406,31.219512939453125,-3.9024391174316406
-7.804878234863281,15.609756469726562,-11.707317352294922
-7.804878234863281,3.9024391174316406,-7.804878234863281
-3.9024391174316406,0.0,-3.9024391174316406
-3.9024391174316406,0.0,0.0
-3.9024391174316406,3.9024391174316406,3.9024391174316406
-3.9024391174316406,7.804878234863281,3.9024391174316406
-7.804878234863281,7.804878234863281,0.0
-7.804878234863281,7.804878234863281,0.0
-3.9024391174316406,3.9024391174316406,0.0
-3.9024391174316406,7.804878234863281,-3.9024391174316406
-3.9024391174316406,11.707317352294922,-7.804878234863281
-11.707317352294922,15.609756469726562,-11.707317352294922
-19.512195587158203,11.707317352294922,-11.707317352294922
-19.512195587158203,3.9024391174316406,-11.707317352294922
-23.414634704589844,3.9024391174316406,-15.609756469726562
-19.512195587158203,3.9024391174316406,-15.609756469726562
-27.317073822021484,-7.804878234863281,-19.512195587158203
-15.609756469726562,-3.9024391174316406,-15.609756469726562
-15.609756469726562,3.9024391174316406,-15.609756469726562
-11.707317352294922,7.804878234863281,-11.707317352294922
-7.804878234863281,7.804878234863281,-11.707317352294922
-3.9024391174316406,7.804878234863281,-11.707317352294922
-7.804878234863281,7.804878234863281,-7.804878234863281
-3.9024391174316406,7.804878234863281,-7.804878234863281
-3.9024391174316406,7.804878234863281,-7.804878234863281
-3.9024391174316406,11.707317352294922,-7.804878234863281
-7.804878234863281,11.707317352294922,-7.804878234863281
-7.804878234863281,7.804878234863281,-7.804878234863281
-11.707317352294922,3.9024391174316406,-7.804878234863281
-11.707317352294922,3.9024391174316406,-7.804878234863281
-11.707317352294922,11.707317352294922,-11.707317352294922
-11.707317352294922,15.609756469726562,-11.707317352294922
-11.707317352294922,15.609756469726562,-15.609756469726562
-15.609756469726562,15.609756469726562,-15.609756469726562
-23.414634704589844,7.804878234863281,-15.609756469726562
-23.414634704589844,7.804878234863281,-11.707317352294922
-23.414634704589844,7.804878234863281,-11.707317352294922
-23.414634704589844,7.804878234863281,-11.707317352294922
-23.414634704589844,7.804878234863281,-11.707317352294922
-23.414634704589844,3.9024391174316406,-7.804878234863281
-23.414634704589844,3.9024391174316406,-11.707317352294922
-23.414634704589844,7.804878234863281,-11.707317352294922
-23.414634704589844,7.804878234863281,-11.707317352294922
-19.512195587158203,7.804878234863281,-11.707317352294922
-19.512195587158203,3.9024391174316406,-15.609756469726562
-19.512195587158203,3.9024391174316406,-15.609756469726562
-19.512195587158203,7.804878234863281,-15.609756469726562
-19.512195587158203,7.804878234863281,-15.609756469726562
-19.512195587158203,7.804878234863281,-15.609756469726562
-15.609756469726562,3.9024391174316406,-11.707317352294922
-15.609756469726562,3.9024391174316406,-11.707317352294922
-15.609756469726562,3.9024391174316406,-7.804878234863281
-15.609756469726562,7.804878234863281,-7.804878234863281
-11.707317352294922,11.707317352294922,-7.804878234863281
-11.707317352294922,11.707317352294922,-3.9024391174316406
-11.707317352294922,15.609756469726562,-3.9024391174316406
-11.707317352294922,15.609756469726562,0.0
-11.707317352294922,11.707317352294922,0.0
-11.707317352294922,11.707317352294922,-3.9024391174316406
-11.707317352294922,11.707317352294922,-3.9024391174316406
-7.804878234863281,15.609756469726562,-3.9024391174316406
-7.804878234863281,15.609756469726562,-3.9024391174316406
-7.804878234863281,15.609756469726562,-3.9024391174316406
-7.804878234863281,15.609756469726562,-3.9024391174316406
-11.707317352294922,15.609756469726562,-3.9024391174316406
-11.707317352294922,15.609756469726562,-3.9024391174316406
-7.804878234863281,19.512195587158203,-3.9024391174316406
-7.804878234863281,19.512195587158203,-3.9024391174316406
-7.804878234863281,19.512195587158203,-3.9024391174316406
-7.804878234863281,19.512195587158203,-3.9024391174316406
-7.804878234863281,19.512195587158203,-3.9024391174316406
-7.804878234863281,15.609756469726562,-3.9024391174316406
-7.804878234863281,15.609756469726562,-3.9024391174316406
-7.804878234863281,15.609756469726562,-3.9024391174316406
-7.804878234863281,15.609756469726562,-3.9024391174316406
-7.804878234863281,15.609756469726562,0.0
-7.804878234863281,15.609756469726562,0.0
-7.804878234863281,15.609756469726562,0.0
-7.804878234863281,11.707317352294922,0.0
-11.707317352294922,11.707317352294922,0.0
-11.707317352294922,7.804878234863281,3.9024391174316406
-11.707317352294922,3.9024391174316406,3.9024391174316406
-11.707317352294922,-3.9024391174316406,7.804878234863281
-11.707317352294922,-7.804878234863281,7.804878234863281
-11.707317352294922,-15.609756469726562,11.707317352294922
-11.707317352294922,-19.512195587158203,15.609756469726562
-7.804878234863281,-23.414634704589844,19.512195587158203
0.0,-27.317073822021484,19.512195587158203
7.804878234863281,-23.414634704589844,19.512195587158203
19.512195587158203,-15.609756469726562,19.512195587158203
27.317073822021484,3.9024391174316406,15.609756469726562
74.1463394165039,46.82926940917969,-19.512195587158203
70.24390411376953,74.1463394165039,-3.9024391174316406
62.43902587890625,105.36585235595703,7.804878234863281
54.63414764404297,117.07317352294922,19.512195587158203
54.63414764404297,128.78048706054688,31.219512939453125
62.43902587890625,124.8780517578125,50.73170852661133
58.53658676147461,113.17073059082031,70.24390411376953
35.121952056884766,58.53658676147461,42.92683029174805
3.9024391174316406,-19.512195587158203,-11.707317352294922
-23.414634704589844,-78.04878234863281,-35.121952056884766
-15.609756469726562,-19.512195587158203,-19.512195587158203
-7.804878234863281,85.8536605834961,15.609756469726562
-3.9024391174316406,117.07317352294922,23.414634704589844
-11.707317352294922,89.75609588623047,11.707317352294922
-11.707317352294922,62.43902587890625,0.0
-19.512195587158203,27.317073822021484,-19.512195587158203
-23.414634704589844,15.609756469726562,-15.609756469726562
-19.512195587158203,15.609756469726562,-7.804878234863281
-11.707317352294922,11.707317352294922,0.0
-7.804878234863281,0.0,3.9024391174316406
-7.804878234863281,-7.804878234863281,7.804878234863281
-7.804878234863281,0.0,7.804878234863281
-7.804878234863281,7.804878234863281,7.804878234863281
-11.707317352294922,15.609756469726562,7.804878234863281
-15.609756469726562,11.707317352294922,3.9024391174316406
-15.609756469726562,11.707317352294922,0.0
-11.707317352294922,7.804878234863281,0.0
-11.707317352294922,7.804878234863281,0.0
-11.707317352294922,11.707317352294922,0.0
-11.707317352294922,11.707317352294922,0.0
-11.707317352294922,11.707317352294922,-3.9024391174316406
-11.707317352294922,7.804878234863281,-3.9024391174316406
-11.707317352294922,7.804878234863281,-7.804878234863281
-11.707317352294922,7.804878234863281,-11.707317352294922
-11.707317352294922,15.609756469726562,-11.707317352294922
-11.707317352294922,15.609756469726562,-11.707317352294922
-7.804878234863281,7.804878234863281,-7.804878234863281
0.0,3.9024391174316406,3.9024391174316406
3.9024391174316406,-3.9024391174316406,3.9024391174316406
19.512195587158203,-42.92683029174805,3.9024391174316406
23.414634704589844,-42.92683029174805,0.0
31.219512939453125,-35.121952056884766,3.9024391174316406
31.219512939453125,-31.219512939453125,7.804878234863281
31.219512939453125,-15.609756469726562,3.9024391174316406
23.414634704589844,0.0,7.804878234863281
23.414634704589844,11.707317352294922,7.804878234863281
27.317073822021484,19.512195587158203,7.804878234863281
39.024391174316406,39.024391174316406,3.9024391174316406
35.121952056884766,39.024391174316406,0.0
11.707317352294922,27.317073822021484,-3.9024391174316406
-7.804878234863281,19.512195587158203,-3.9024391174316406
-11.707317352294922,11.707317352294922,-3.9024391174316406
-15.609756469726562,7.804878234863281,-3.9024391174316406
-15.609756469726562,7.804878234863281,-3.9024391174316406
-11.707317352294922,7.804878234863281,-7.804878234863281
-7.804878234863281,7.804878234863281,-7.804878234863281
-7.804878234863281,7.804878234863281,-7.804878234863281
-11.707317352294922,11.707317352294922,-7.804878234863281
-11.707317352294922,11.707317352294922,-7.804878234863281
-11.707317352294922,15.609756469726562,-11.707317352294922
-11.707317352294922,19.512195587158203,-11.707317352294922
-15.609756469726562,15.609756469726562,-7.804878234863281
-15.609756469726562,15.609756469726562,-11.707317352294922
-15.609756469726562,15.609756469726562,-11.707317352294922
-15.609756469726562,15.609756469726562,-11.707317352294922
-15.609756469726562,15.609756469726562,-11.707317352294922
-15.609756469726562,11.707317352294922,-11.707317352294922
-15.609756469726562,11.707317352294922,-11.707317352294922
-15.609756469726562,7.804878234863281,-11.707317352294922
-15.609756469726562,7.804878234863281,-11.707317352294922
-19.512195587158203,7.804878234863281,-11.707317352294922
-15.609756469726562,7.804878234863281,-11.707317352294922
-15.609756469726562,7.804878234863281,-11.707317352294922
-15.609756469726562,7.804878234863281,-11.707317352294922
-11.707317352294922,7.804878234863281,-15.609756469726562
-11.707317352294922,3.9024391174316406,-11.707317352294922
-11.707317352294922,0.0,-11.707317352294922
-11.707317352294922,0.0,-11.707317352294922
-11.707317352294922,0.0,-7.804878234863281
-11.707317352294922,-3.9024391174316406,-7.804878234863281
-15.609756469726562,-7.804878234863281,-3.9024391174316406
-15.609756469726562,-7.804878234863281,0.0
-15.609756469726562,-7.804878234863281,0.0
-15.609756469726562,-7.804878234863281,3.9024391174316406
-15.609756469726562,-7.804878234863281,3.9024391174316406
-15.609756469726562,-7.804878234863281,3.9024391174316406
-15.609756469726562,-7.804878234863281,3.9024391174316406
-15.609756469726562,-7.804878234863281,3.9024391174316406
-15.609756469726562,-7.804878234863281,7.804878234863281
-15.609756469726562,-7.804878234863281,7.804878234863281
-15.609756469726562,-7.804878234863281,7.804878234863281
-15.609756469726562,-11.707317352294922,11.707317352294922
-15.609756469726562,-11.707317352294922,15.609756469726562
-15.609756469726562,-19.512195587158203,19.512195587158203
-15.609756469726562,-23.414634704589844,19.512195587158203
-11.707317352294922,-31.219512939453125,19.512195587158203
-11.707317352294922,-31.219512939453125,19.512195587158203
-11.707317352294922,-31.219512939453125,19.512195587158203
-15.609756469726562,-31.219512939453125,15.609756469726562
-15.609756469726562,-27.317073822021484,7.804878234863281
-7.804878234863281,-23.414634704589844,0.0
-7.804878234863281,-19.512195587158203,-3.9024391174316406
-7.804878234863281,-11.707317352294922,-7.804878234863281
0.0,3.9024391174316406,-19.512195587158203
42.92683029174805,62.43902587890625,35.121952056884766
81.95121765136719,81.95121765136719,42.92683029174805
42.92683029174805,89.75609588623047,31.219512939453125
15.609756469726562,97.56097412109375,19.512195587158203
11.707317352294922,89.75609588623047,11.707317352294922
11.707317352294922,66.34146118164062,3.9024391174316406
3.9024391174316406,58.53658676147461,-3.9024391174316406
-3.9024391174316406,58.53658676147461,-7.804878234863281
-3.9024391174316406,66.34146118164062,-15.609756469726562
-7.804878234863281,70.24390411376953,-31.219512939453125
-19.512195587158203,62.43902587890625,-31.219512939453125
-19.512195587158203,42.92683029174805,-27.317073822021484
-11.707317352294922,27.317073822021484,-15.609756469726562
-3.9024391174316406,11.707317352294922,-7.804878234863281
-3.9024391174316406,0.0,-3.9024391174316406
-7.804878234863281,-7.804878234863281,-3.9024391174316406
-23.414634704589844,-23.414634704589844,-7.804878234863281
-39.024391174316406,-27.317073822021484,-15.609756469726562
-42.92683029174805,-23.414634704589844,-23.414634704589844
-39.024391174316406,-35.121952056884766,-31.219512939453125
-27.317073822021484,-42.92683029174805,-35.121952056884766
-27.317073822021484,-35.121952056884766,-31.219512939453125
-31.219512939453125,-23.414634704589844,-31.219512939453125
-35.121952056884766,-19.512195587158203,-31.219512939453125
-35.121952056884766,-15.609756469726562,-31.219512939453125
-35.121952056884766,-11.707317352294922,-27.317073822021484
-31.219512939453125,-7.804878234863281,-27.317073822021484
-27.317073822021484,-11.707317352294922,-27.317073822021484
-27.317073822021484,-11.707317352294922,-27.317073822021484
-27.317073822021484,-11.707317352294922,-23.414634704589844
-27.317073822021484,-11.707317352294922,-23.414634704589844
-27.317073822021484,-7.804878234863281,-23.414634704589844
-23.414634704589844,-7.804878234863281,-19.512195587158203
-23.414634704589844,-3.9024391174316406,-19.512195587158203
-23.414634704589844,0.0,-19.512195587158203
-23.414634704589844,0.0,-19.512195587158203
-19.512195587158203,3.9024391174316406,-19.512195587158203
-19.512195587158203,3.9024391174316406,-23.414634704589844
-19.512195587158203,3.9024391174316406,-19.512195587158203
-19.512195587158203,3.9024391174316406,-23.414634704589844
-19.512195587158203,3.9024391174316406,-23.414634704589844
-19.512195587158203,3.9024391174316406,-19.512195587158203
-19.512195587158203,3.9024391174316406,-23.414634704589844
-15.609756469726562,3.9024391174316406,-19.512195587158203
-11.707317352294922,3.9024391174316406,-19.512195587158203
-11.707317352294922,3.9024391174316406,-15.609756469726562
-7.804878234863281,3.9024391174316406,-11.707317352294922
-7.804878234863281,3.9024391174316406,-11.707317352294922
-7.804878234863281,0.0,-11.707317352294922
-7.804878234863281,0.0,-7.804878234863281
-7.804878234863281,-3.9024391174316406,-7.804878234863281
-7.804878234863281,0.0,-7.804878234863281
-7.804878234863281,0.0,-7.804878234863281
-3.9024391174316406,0.0,-7.804878234863281
-3.9024391174316406,0.0,-7.804878234863281
-7.804878234863281,0.0,-7.804878234863281
-7.804878234863281,0.0,-7.804878234863281
-3.9024391174316406,0.0,-7.804878234863281
-3.9024391174316406,-3.9024391174316406,-7.804878234863281
-3.9024391174316406,-3.9024391174316406,-7.804878234863281
-3.9024391174316406,-3.9024391174316406,-3.9024391174316406
-3.9024391174316406,0.0,-3.9024391174316406
-3.9024391174316406,0.0,-3.9024391174316406
-3.9024391174316406,0.0,-3.9024391174316406
-3.9024391174316406,0.0,0.0
0.0,0.0,0.0
0.0,0.0,0.0
0.0,0.0,3.9024391174316406
3.9024391174316406,-3.9024391174316406,3.9024391174316406
3.9024391174316406,-11.707317352294922,3.9024391174316406
7.804878234863281,-19.512195587158203,7.804878234863281
11.707317352294922,-27.317073822021484,15.609756469726562
15.609756469726562,-39.024391174316406,19.512195587158203
15.609756469726562,-46.82926940917969,23.414634704589844
19.512195587158203,-54.63414764404297,27.317073822021484
27.317073822021484,-54.63414764404297,35.121952056884766
35.121952056884766,-46.82926940917969,35.121952056884766
50.73170852661133,-31.219512939453125,39.024391174316406
62.43902587890625,-7.804878234863281,39.024391174316406
70.24390411376953,23.414634704589844,42.92683029174805
101.46341705322266,136.5853729248047,7.804878234863281
78.04878234863281,183.41464233398438,27.317073822021484
78.04878234863281,187.31707763671875,46.82926940917969
89.75609588623047,136.5853729248047,58.53658676147461
93.65853881835938,85.8536605834961,66.34146118164062
89.75609588623047,-19.512195587158203,70.24390411376953
74.1463394165039,-120.9756088256836,70.24390411376953
70.24390411376953,-101.46341705322266,39.024391174316406
54.63414764404297,46.82926940917969,7.804878234863281
19.512195587158203,109.26829528808594,15.609756469726562
7.804878234863281,89.75609588623047,15.609756469726562
11.707317352294922,27.317073822021484,11.707317352294922
15.609756469726562,-3.9024391174316406,19.512195587158203
15.609756469726562,-3.9024391174316406,27.317073822021484
19.512195587158203,0.0,31.219512939453125
19.512195587158203,11.707317352294922,35.121952056884766
15.609756469726562,3.9024391174316406,35.121952056884766
15.609756469726562,-11.707317352294922,31.219512939453125
11.707317352294922,-19.512195587158203,27.317073822021484
11.707317352294922,-19.512195587158203,23.414634704589844
7.804878234863281,-15.609756469726562,19.512195587158203
7.804878234863281,-7.804878234863281,15.609756469726562
7.804878234863281,0.0,11.707317352294922
3.9024391174316406,3.9024391174316406,11.707317352294922
3.9024391174316406,7.804878234863281,15.609756469726562
3.9024391174316406,7.804878234863281,19.512195587158203
-3.9024391174316406,11.707317352294922,23.414634704589844
-31.219512939453125,66.34146118164062,23.414634704589844
-15.609756469726562,66.34146118164062,39.024391174316406
-27.317073822021484,46.82926940917969,46.82926940917969
-42.92683029174805,39.024391174316406,50.73170852661133
-42.92683029174805,31.219512939453125,54.63414764404297
-39.024391174316406,19.512195587158203,54.63414764404297
-35.121952056884766,7.804878234863281,54.63414764404297
-27.317073822021484,0.0,50.73170852661133
-23.414634704589844,-15.609756469726562,46.82926940917969
-19.512195587158203,-23.414634704589844,46.82926940917969
-15.609756469726562,-31.219512939453125,46.82926940917969
-11.707317352294922,-39.024391174316406,46.82926940917969
-15.609756469726562,-42.92683029174805,50.73170852661133
-19.512195587158203,-42.92683029174805,54.63414764404297
-15.609756469726562,-39.024391174316406,58.53658676147461
-11.707317352294922,-35.121952056884766,54.63414764404297
-7.804878234863281,-31.219512939453125,58.53658676147461
-3.9024391174316406,-31.219512939453125,62.43902587890625
-3.9024391174316406,-27.317073822021484,62.43902587890625
0.0,-23.414634704589844,62.43902587890625
0.0,-19.512195587158203,62.43902587890625
0.0,-15.609756469726562,66.34146118164062
3.9024391174316406,-7.804878234863281,70.24390411376953
7.804878234863281,-3.9024391174316406,78.04878234863281
11.707317352294922,3.9024391174316406,85.8536605834961
15.609756469726562,3.9024391174316406,93.65853881835938
19.512195587158203,7.804878234863281,101.46341705322266
58.53658676147461,27.317073822021484,113.17073059082031
31.219512939453125,42.92683029174805,109.26829528808594
23.414634704589844,35.121952056884766,105.36585235595703
54.63414764404297,54.63414764404297,124.8780517578125
74.1463394165039,74.1463394165039,117.07317352294922
85.8536605834961,89.75609588623047,101.46341705322266
85.8536605834961,85.8536605834961,70.24390411376953
50.73170852661133,35.121952056884766,35.121952056884766
-3.9024391174316406,-31.219512939453125,27.317073822021484
-7.804878234863281,-54.63414764404297,42.92683029174805
15.609756469726562,-46.82926940917969,70.24390411376953
46.82926940917969,-19.512195587158203,93.65853881835938
66.34146118164062,3.9024391174316406,113.17073059082031
58.53658676147461,3.9024391174316406,117.07317352294922
58.53658676147461,23.414634704589844,113.17073059082031
58.53658676147461,46.82926940917969,105.36585235595703
78.04878234863281,85.8536605834961,89.75609588623047
89.75609588623047,97.56097412109375,70.24390411376953
89.75609588623047,93.65853881835938,54.63414764404297
85.8536605834961,81.95121765136719,35.121952056884766
93.65853881835938,74.1463394165039,11.707317352294922
85.8536605834961,62.43902587890625,-3.9024391174316406
70.24390411376953,46.82926940917969,-7.804878234863281
101.46341705322266,39.024391174316406,-27.317073822021484
120.9756088256836,23.414634704589844,-39.024391174316406
120.9756088256836,27.317073822021484,-35.121952056884766
120.9756088256836,46.82926940917969,-27.317073822021484
109.26829528808594,89.75609588623047,-7.804878234863281
46.82926940917969,93.65853881835938,66.34146118164062
-42.92683029174805,81.95121765136719,175.60975646972656
0.0,0.0,0.0
0.0,0.0,0.0
11.707317352294922,-11.707317352294922,117.07317352294922
23.414634704589844,-19.512195587158203,101.46341705322266
3.9024391174316406,-23.414634704589844,93.65853881835938
-27.317073822021484,-23.414634704589844,93.65853881835938
-35.121952056884766,-19.512195587158203,89.75609588623047
-11.707317352294922,23.414634704589844,58.53658676147461
-11.707317352294922,85.8536605834961,42.92683029174805
-42.92683029174805,136.5853729248047,23.414634704589844
-85.8536605834961,144.39024353027344,-7.804878234863281
-109.26829528808594,124.8780517578125,-15.609756469726562
-101.46341705322266,78.04878234863281,-15.609756469726562
-89.75609588623047,15.609756469726562,-15.609756469726562
-85.8536605834961,-66.34146118164062,3.9024391174316406
-81.95121765136719,-152.19512939453125,39.024391174316406
-105.36585235595703,-214.6341552734375,3.9024391174316406
-105.36585235595703,-199.02439880371094,-97.56097412109375
-97.56097412109375,-140.48780822753906,-156.09756469726562
-85.8536605834961,-46.82926940917969,-35.121952056884766
-46.82926940917969,19.512195587158203,7.804878234863281
-19.512195587158203,78.04878234863281,19.512195587158203
-19.512195587158203,128.78048706054688,27.317073822021484
-19.512195587158203,136.5853729248047,3.9024391174316406
-23.414634704589844,128.78048706054688,-19.512195587158203
-35.121952056884766,105.36585235595703,-39.024391174316406
-50.73170852661133,85.8536605834961,-54.63414764404297
-54.63414764404297,66.34146118164062,-58.53658676147461
-50.73170852661133,62.43902587890625,-58.53658676147461
-31.219512939453125,54.63414764404297,-54.63414764404297
-7.804878234863281,39.024391174316406,-46.82926940917969
7.804878234863281,27.317073822021484,-42.92683029174805
35.121952056884766,11.707317352294922,-31.219512939453125
58.53658676147461,-7.804878234863281,-19.512195587158203
74.1463394165039,-27.317073822021484,-11.707317352294922
81.95121765136719,-31.219512939453125,-3.9024391174316406
85.8536605834961,-35.121952056884766,3.9024391174316406
93.65853881835938,-23.414634704589844,15.609756469726562
101.46341705322266,7.804878234863281,27.317073822021484
89.75609588623047,27.317073822021484,35.121952056884766
62.43902587890625,27.317073822021484,50.73170852661133
35.121952056884766,19.512195587158203,54.63414764404297
19.512195587158203,11.707317352294922,58.53658676147461
7.804878234863281,3.9024391174316406,62.43902587890625
-7.804878234863281,-3.9024391174316406,62.43902587890625
-19.512195587158203,-11.707317352294922,58.53658676147461
-27.317073822021484,-15.609756469726562,54.63414764404297
-35.121952056884766,-15.609756469726562,50.73170852661133
-35.121952056884766,-11.707317352294922,42.92683029174805
-27.317073822021484,-3.9024391174316406,39.024391174316406
-27.317073822021484,0.0,35.121952056884766
-19.512195587158203,7.804878234863281,31.219512939453125
-11.707317352294922,15.609756469726562,27.317073822021484
-7.804878234863281,19.512195587158203,23.414634704589844
-3.9024391174316406,23.414634704589844,19.512195587158203
-3.9024391174316406,23.414634704589844,15.609756469726562
-3.9024391174316406,19.512195587158203,15.609756469726562
-7.804878234863281,15.609756469726562,15.609756469726562
-7.804878234863281,11.707317352294922,15.609756469726562
-15.609756469726562,11.707317352294922,15.609756469726562
-19.512195587158203,11.707317352294922,19.512195587158203
-23.414634704589844,11.707317352294922,19.512195587158203
-23.414634704589844,15.609756469726562,23.414634704589844
-23.414634704589844,15.609756469726562,27.317073822021484
-15.609756469726562,23.414634704589844,31.219512939453125
-7.804878234863281,27.317073822021484,35.121952056884766
3.9024391174316406,31.219512939453125,42.92683029174805
19.512195587158203,31.219512939453125,46.82926940917969
23.414634704589844,23.414634704589844,50.73170852661133
19.512195587158203,15.609756469726562,50.73170852661133
7.804878234863281,7.804878234863281,46.82926940917969
-15.609756469726562,3.9024391174316406,39.024391174316406
-27.317073822021484,11.707317352294922,11.707317352294922
-70.24390411376953,46.82926940917969,-62.43902587890625
-78.04878234863281,66.34146118164062,-78.04878234863281
-54.63414764404297,-15.609756469726562,-42.92683029174805
-27.317073822021484,27.317073822021484,-23.414634704589844
-3.9024391174316406,58.53658676147461,-15.609756469726562
-3.9024391174316406,66.34146118164062,0.0
-15.609756469726562,81.95121765136719,-11.707317352294922
-23.414634704589844,89.75609588623047,-39.024391174316406
-11.707317352294922,93.65853881835938,-54.63414764404297
-7.804878234863281,93.65853881835938,-54.63414764404297
0.0,101.46341705322266,-54.63414764404297
0.0,128.78048706054688,-70.24390411376953
7.804878234863281,136.5853729248047,-78.04878234863281
11.707317352294922,136.5853729248047,-152.19512939453125
-11.707317352294922,144.39024353027344,-144.39024353027344
-7.804878234863281,109.26829528808594,-105.36585235595703
-7.804878234863281,148.2926788330078,-117.07317352294922
-19.512195587158203,152.19512939453125,-128.78048706054688
-27.317073822021484,144.39024353027344,-152.19512939453125
-31.219512939453125,144.39024353027344,-175.60975646972656
-31.219512939453125,144.39024353027344,-183.41464233398438
-35.121952056884766,148.2926788330078,-191.21951293945312
-46.82926940917969,148.2926788330078,-206.8292694091797
-39.024391174316406,148.2926788330078,-238.0487823486328
-15.609756469726562,148.2926788330078,-277.07318115234375
15.609756469726562,144.39024353027344,-316.0975646972656
42.92683029174805,128.78048706054688,-359.0243835449219
62.43902587890625,109.26829528808594,-398.0487976074219
89.75609588623047,89.75609588623047,-425.3658752441406
117.07317352294922,58.53658676147461,-433.1707458496094
140.48780822753906,3.9024391174316406,-417.56097412109375
152.19512939453125,-19.512195587158203,-409.756103515625
167.8048858642578,-42.92683029174805,-390.243896484375
183.41464233398438,-31.219512939453125,-370.7317199707031
187.31707763671875,-31.219512939453125,-362.9268493652344
183.41464233398438,-54.63414764404297,-359.0243835449219
171.7073211669922,-81.95121765136719,-355.1219482421875
171.7073211669922,-117.07317352294922,-343.4146423339844
179.51219177246094,-167.8048858642578,-312.19512939453125
195.1219482421875,-210.73170471191406,-269.268310546875
199.02439880371094,-241.9512176513672,-222.43902587890625
160.0,-241.9512176513672,-230.24391174316406
132.68292236328125,-241.9512176513672,-253.65853881835938
74.1463394165039,-230.24391174316406,-280.9756164550781
42.92683029174805,-210.73170471191406,-280.9756164550781
54.63414764404297,-210.73170471191406,-273.1707458496094
120.9756088256836,-261.4634094238281,-288.7804870605469
265.3658447265625,-398.0487976074219,-359.0243835449219
425.3658752441406,-554.1463623046875,-507.31707763671875
476.0975646972656,-632.1951293945312,-706.3414916992188
347.31707763671875,-663.4146728515625,-889.756103515625
