EMG Sensor 0,EMG Sensor 1
0.0,0.0
0.0,0.0
0.0,0.0
0.0,0.0
0.0,0.0
0.0,0.0
0.0,0.0
0.0,0.0
0.0,0.0
0.0,0.0
0.0,0.0
0.0,0.0
0.0,0.0
0.0,0.0
0.0,0.0
0.0,0.0
0.0,0.0
0.0,0.0
0.0,0.0
0.0,0.0
0.0,0.0
0.0,0.0
0.0,0.0
0.0,0.0
0.0,0.0
0.0,0.0
0.0,0.0
0.0,0.0
0.0,0.0
0.0,0.0
0.0,0.0
0.0,0.0
0.0,0.0
0.0,0.0
0.0,0.0
0.0,0.0
0.0,0.0
0.0,0.0
0.0,0.0
0.0,0.0
0.0,0.0
0.0,0.0
0.0,0.0
0.0,0.0
0.0,0.0
0.0,0.0
0.0,0.0
0.0,0.0
0.0,0.0
0.0,0.0
0.0,0.0
0.0,0.0
0.0,0.0
0.0,0.0
0.0,0.0
0.0,0.0
0.0,0.0
0.0,0.0
0.0,0.0
0.0,0.0
0.0,0.0
0.0,0.0
0.0,0.0
0.0,0.0
0.0,0.0
0.0,0.0
0.0,0.0
0.0,0.0
0.0,0.0
0.0,0.0
0.0,0.0
0.0,0.0
0.0,0.0
0.0,0.0
0.0,0.0
0.0,0.0
0.0,0.0
0.0,0.0
0.0,0.0
0.0,0.0
0.0,0.0
0.0,0.0
0.0,0.0
0.0,0.0
0.0,0.0
0.0,0.0
0.0,0.0
0.0,0.0
0.0,0.0
0.0,0.0
0.0,0.0
0.0,0.0
0.0,0.0
0.0,0.0
0.0,0.0
0.0,0.0
0.0,0.0
0.0,0.0
0.0,0.0
0.0,0.0
0.0,0.0
0.0,0.0
0.0,0.0
0.0,0.0
0.0,0.0
0.0,0.0
0.0,0.0
0.0,0.0
0.0,0.0
0.0,0.0
0.0,0.0
0.0,0.0
0.0,0.0
0.0,0.0
0.0,0.0
0.0,0.0
0.0,0.0
0.0,0.0
0.0,0.0
-0.016449225604638743,0.0
-0.0050354772259098195,0.0
-0.0006713969634546426,0.0
0.006378271152819104,0.0
0.004364080262455177,0.0
-0.0003356984817273213,0.0
0.0023498893720912484,0.0
0.003692683299000534,0.0
0.009063859006637675,0.0
0.011749446860456245,0.0
0.007721065079728388,0.0
0.007721065079728388,0.0
0.007721065079728388,0.0
0.009063859006637675,0.0
0.007721065079728388,0.0
0.003692683299000534,0.0
0.005706874189364461,0.0
0.0023498893720912484,0.0
-0.0003356984817273213,0.0
-0.003692683299000534,0.0
-0.0030212863355458916,0.0
0.0003356984817273213,0.0
-0.005706874189364461,0.0
-0.008392462043183033,0.0
-0.010406652933546959,0.0
-0.006042572671091783,0.0
-0.0016784924086366065,0.0
0.0023498893720912484,0.0
0.005706874189364461,0.0
0.0050354772259098195,0.0
0.013092240787365528,0.0
0.020477607385366595,0.0
0.0157778286411841,0.0
0.013092240787365528,0.0
0.009735255970092317,0.0
0.012420843823910887,0.0
0.011749446860456245,0.0
0.011749446860456245,0.0
0.008728160524910353,0.0
0.007049668116273747,0.0
0.011749446860456245,0.0
0.010406652933546959,0.0
0.004699778744182497,0.0
-0.0030212863355458916,0.0
-0.0016784924086366065,0.0
0.005706874189364461,0.0
0.0050354772259098195,0.0
0.005706874189364461,0.0
0.007721065079728388,0.0
0.0023498893720912484,0.0
-0.0030212863355458916,0.0
-0.005706874189364461,0.0
-0.007049668116273747,0.0
-0.003692683299000534,0.0
-0.0003356984817273213,0.0
-0.003692683299000534,0.0
-0.0003356984817273213,0.0
0.010406652933546959,0.0
0.003692683299000534,0.0
-0.007049668116273747,0.0
-0.003356984817273213,0.0
0.0050354772259098195,0.0
0.007721065079728388,0.0
0.006378271152819104,0.0
0.011749446860456245,0.0
0.01376363775082017,0.0
0.011078049897001601,0.0
0.006378271152819104,0.0
0.007721065079728388,0.0
0.008728160524910353,0.0
0.0010070954451819635,0.0
0.004699778744182497,0.0
0.0050354772259098195,0.0
-0.003692683299000534,0.0
0.0016784924086366065,0.0
0.007385366598001068,0.0
0.006378271152819104,0.0
0.010406652933546959,0.0
0.007049668116273747,0.0
-0.0003356984817273213,0.0
-0.0016784924086366065,0.0
0.004364080262455177,0.0
0.0023498893720912484,0.0
-0.009735255970092317,0.0
-0.006042572671091783,0.0
-0.0030212863355458916,0.0
0.0050354772259098195,0.0
0.008392462043183033,0.0
0.008392462043183033,0.0
0.0023498893720912484,0.0
-0.0030212863355458916,0.0
0.002014190890363927,0.0
0.0010070954451819635,0.0
-0.004364080262455177,0.0
-0.007721065079728388,0.0
-0.004364080262455177,0.0
-0.0016784924086366065,0.0
-0.0030212863355458916,0.0
-0.0010070954451819635,0.0
0.003692683299000534,0.0
0.003692683299000534,0.0
-0.0030212863355458916,0.0
0.0003356984817273213,0.0
0.006378271152819104,0.0
0.009735255970092317,0.0
0.008392462043183033,0.0
0.0016784924086366065,0.0
0.0023498893720912484,0.0
0.013092240787365528,0.0
0.0157778286411841,0.0
0.009063859006637675,0.0
0.009063859006637675,0.0
0.009063859006637675,0.0
0.013092240787365528,0.0
0.009735255970092317,0.0
0.015442130159456776,0.0
0.021820401312275882,0.0
0.015106431677729458,0.0
0.010406652933546959,0.0
0.011413748378728923,0.0
0.014435034714274816,0.0
0.012420843823910887,0.0
0.0157778286411841,0.0
0.0157778286411841,0.0
0.009063859006637675,0.0
0.0157778286411841,0.0
0.0157778286411841,0.0
0.007049668116273747,0.0
0.0023498893720912484,0.0
0.005706874189364461,0.0
0.0050354772259098195,0.0
-0.0010070954451819635,0.0
-0.0030212863355458916,0.0
-0.0016784924086366065,0.0
-0.0023498893720912484,0.0
-0.0016784924086366065,0.0
0.0010070954451819635,0.0
0.006042572671091783,-0.03256275272755016
0.003692683299000534,-0.033401998931868467
0.0050354772259098195,-0.03474479285877775
0.005706874189364461,-0.033066300450141146
0.0050354772259098195,-0.03105210955977722
0.010070954451819639,-0.030380712596322572
0.006378271152819104,-0.033066300450141146
-0.0010070954451819635,-0.035751888303959714
-0.0003356984817273213,-0.032730601968413826
0.0010070954451819635,-0.027023727779049357
0.004364080262455177,-0.02333104448004883
-0.003692683299000534,-0.021988250553139542
0.0010070954451819635,-0.021652552071412222
0.008392462043183033,-0.021652552071412222
-0.0003356984817273213,-0.021820401312275882
-0.0030212863355458916,-0.021988250553139542
0.0010070954451819635,-0.02400244144350347
0.003692683299000534,-0.027695124742504008
0.003692683299000534,-0.027023727779049357
0.0016784924086366065,-0.02366674296177615
0.0030212863355458916,-0.019638361181048294
0.003356984817273213,-0.014938582436865796
0.007721065079728388,-0.011917296101319903
0.007721065079728388,-0.009567406729228655
0.003356984817273213,-0.009567406729228655
-0.004364080262455177,-0.011245899137865261
-0.0016784924086366065,-0.014602883955138474
0.006378271152819104,-0.021652552071412222
0.004364080262455177,-0.027359426260776684
0.006378271152819104,-0.027695124742504008
0.006378271152819104,-0.027023727779049357
-0.0030212863355458916,-0.030716411078049892
-0.0016784924086366065,-0.044647898069733724
-0.0006713969634546426,-0.06797894254978255
-0.0023498893720912484,-0.08879224841687647
-0.011749446860456245,-0.10154879072251469
-0.015106431677729458,-0.10121309224078735
-0.01812771801327535,-0.08711375600823987
-0.01913481345845731,-0.06092927443350881
-0.006378271152819104,-0.02265964751659419
0.0016784924086366065,0.019638361181048294
-0.0006713969634546426,0.05622949568932631
-0.0003356984817273213,0.07687495231555656
-0.0030212863355458916,0.07570000762951096
-0.005706874189364461,0.05622949568932631
-0.008728160524910353,0.03172350652323186
-0.005706874189364461,0.011917296101319903
0.0023498893720912484,-0.0011749446860456242
-0.0003356984817273213,-0.010238803692683297
-0.0030212863355458916,-0.01527428091859312
-0.0016784924086366065,-0.014435034714274816
-0.0003356984817273213,-0.014938582436865796
0.0023498893720912484,-0.019638361181048294
0.003692683299000534,-0.022995345998321506
0.0023498893720912484,-0.026352330815594724
-0.0030212863355458916,-0.030380712596322572
0.002014190890363927,-0.0323949034866865
0.0010070954451819635,-0.03172350652323186
-0.006378271152819104,-0.0323949034866865
-0.0030212863355458916,-0.03508049134050507
0.0010070954451819635,-0.03743038071259632
0.0023498893720912484,-0.03944457160296025
-0.0003356984817273213,-0.043305104142824444
0.008728160524910353,-0.048508430609597926
0.012756542305638208,-0.05387960631723506
0.009063859006637675,-0.05589379720759898
0.010406652933546959,-0.048844129091325246
0.011413748378728923,-0.03910887312123293
0.017120622568093383,-0.032730601968413826
0.025177386129549097,-0.029709315632867935
0.019806210421911954,-0.027359426260776684
0.0023498893720912484,-0.0260166323338674
-0.004364080262455177,-0.028702220187685965
0.0050354772259098195,-0.035751888303959714
0.006378271152819104,-0.043472953383688104
-0.0003356984817273213,-0.050522621499961846
0.007721065079728388,-0.052201113908598454
0.015106431677729458,-0.04800488288700694
0.014770733196002136,-0.03675898374914168
0.007721065079728388,-0.029709315632867935
0.010406652933546959,-0.0323949034866865
0.013092240787365528,-0.03810177767605096
0.008392462043183033,-0.048508430609597926
0.008392462043183033,-0.054047455558098714
0.009735255970092317,-0.05253681239032577
0.01846341649500267,-0.04313725490196078
0.021820401312275882,-0.0323949034866865
0.021149004348821242,-0.027695124742504008
0.01846341649500267,-0.029205767910276948
0.011749446860456245,-0.03843747615777828
0.007049668116273747,-0.048508430609597926
0.004364080262455177,-0.050690470740825506
0.0023498893720912484,-0.043976501106279084
0.006042572671091783,-0.035751888303959714
0.007721065079728388,-0.03373769741359579
0.007049668116273747,-0.03810177767605096
0.003692683299000534,-0.044480048828870064
0.006378271152819104,-0.048676279850461586
0.010070954451819639,-0.04649423971923399
0.0023498893720912484,-0.044647898069733724
0.0010070954451819635,-0.04783703364614328
0.006378271152819104,-0.05119401846341649
0.007049668116273747,-0.052201113908598454
0.011413748378728923,-0.04649423971923399
0.01812771801327535,-0.03978027008468757
0.013092240787365528,-0.03776607919432364
0.007049668116273747,-0.040451667048142216
0.014435034714274816,-0.04632639047837033
0.011749446860456245,-0.04783703364614328
0.004364080262455177,-0.043472953383688104
-0.0003356984817273213,-0.036423285267414354
0.0030212863355458916,-0.035751888303959714
0.0016784924086366065,-0.03978027008468757
-0.003692683299000534,-0.04213015945677882
-0.0003356984817273213,-0.043808651865415424
0.0006713969634546426,-0.03978027008468757
-0.0030212863355458916,-0.033066300450141146
-0.0010070954451819635,-0.0260166323338674
-0.0013427939269092851,-0.021652552071412222
0.0050354772259098195,-0.022323949034866862
0.008392462043183033,-0.02719157701991302
0.009735255970092317,-0.04078736552986953
0.0030212863355458916,-0.05387960631723506
-0.0003356984817273213,-0.058915083543144876
-0.0023498893720912484,-0.051865415426871134
-0.009735255970092317,-0.03776607919432364
-0.009735255970092317,-0.029037918669413288
0.0003356984817273213,-0.027695124742504008
0.006378271152819104,-0.02853437094682231
0.009063859006637675,-0.029037918669413288
-0.0016784924086366065,-0.027023727779049357
-0.003692683299000534,-0.03508049134050507
-0.0003356984817273213,-0.05253681239032577
-0.004364080262455177,-0.06797894254978255
-0.005706874189364461,-0.08073548485542076
0.0003356984817273213,-0.0861066605630579
0.0050354772259098195,-0.08812085145342184
0.0010070954451819635,-0.08711375600823987
-0.004364080262455177,-0.08023193713282978
-0.0030212863355458916,-0.06663614862287326
-0.004699778744182497,-0.04615854123750667
0.006378271152819104,-0.02400244144350347
0.011749446860456245,-0.0023498893720912484
0.010406652933546959,0.01292439154650187
0.007721065079728388,0.01326009002822919
0.010406652933546959,0.0011749446860456242
0.01376363775082017,-0.014938582436865796
0.010070954451819639,-0.02366674296177615
0.010406652933546959,-0.027695124742504008
0.011749446860456245,-0.024505989166094453
0.007721065079728388,-0.014938582436865796
0.003692683299000534,-0.008560311284046692
0.0010070954451819635,-0.014602883955138474
0.0023498893720912484,-0.027023727779049357
0.0010070954451819635,-0.033066300450141146
-0.0003356984817273213,-0.030380712596322572
-0.0016784924086366065,-0.02265964751659419
-0.007049668116273747,-0.014938582436865796
0.0010070954451819635,-0.013092240787365528
0.004699778744182497,-0.014435034714274816
0.0003356984817273213,-0.014938582436865796
0.0010070954451819635,-0.014938582436865796
0.0050354772259098195,-0.017959868772411687
0.0050354772259098195,-0.02937361715114061
-0.003356984817273213,-0.04078736552986953
0.003692683299000534,-0.04313725490196078
0.01376363775082017,-0.041123064011596856
0.010406652933546959,-0.0379339284351873
0.010406652933546959,-0.03927672236209659
0.012420843823910887,-0.04213015945677882
0.011749446860456245,-0.044647898069733724
0.012420843823910887,-0.04750133516441596
0.006378271152819104,-0.043808651865415424
0.005706874189364461,-0.041794460975051496
-0.0003356984817273213,-0.03994811932555123
0.0050354772259098195,-0.036423285267414354
-0.0003356984817273213,-0.03407339589532311
-0.0030212863355458916,-0.035751888303959714
0.0023498893720912484,-0.03978027008468757
0.0050354772259098195,-0.03675898374914168
0.0050354772259098195,-0.0323949034866865
0.0023498893720912484,-0.026352330815594724
0.0010070954451819635,-0.01896696421759365
0.003692683299000534,-0.017624170290684367
0.0050354772259098195,-0.021988250553139542
0.003692683299000534,-0.029205767910276948
0.0030212863355458916,-0.035751888303959714
0.003692683299000534,-0.04011596856641489
0.006378271152819104,-0.03978027008468757
0.010406652933546959,-0.032730601968413826
0.009063859006637675,-0.028366521705958644
0.0016784924086366065,-0.03407339589532311
0.006378271152819104,-0.043472953383688104
0.0050354772259098195,-0.051361867704280154
-0.005706874189364461,-0.05824368657969024
-0.009063859006637675,-0.0639505607690547
-0.0030212863355458916,-0.06663614862287326
0.0050354772259098195,-0.06126497291523613
0.0010070954451819635,-0.05119401846341649
0.003692683299000534,-0.03675898374914168
0.003692683299000534,-0.02400244144350347
0.002014190890363927,-0.017959868772411687
0.0050354772259098195,-0.017624170290684367
0.007721065079728388,-0.01829556725413901
0.011749446860456245,-0.016617074845502403
0.012756542305638208,-0.01560997940032044
0.014435034714274816,-0.009903105210955977
0.010406652933546959,-0.008560311284046692
-0.0003356984817273213,-0.0157778286411841
0.004364080262455177,-0.029709315632867935
0.0006713969634546426,-0.048844129091325246
-0.005706874189364461,-0.06596475165941862
-0.0030212863355458916,-0.07939269092851148
-0.0016784924086366065,-0.08493171587701229
0.002014190890363927,-0.08375677119096665
-0.0010070954451819635,-0.08409246967269397
0.0003356984817273213,-0.08073548485542076
-0.0030212863355458916,-0.06932173647669183
-0.015106431677729458,-0.04750133516441596
-0.009735255970092317,-0.02668802929732204
-0.0016784924086366065,-0.010238803692683297
-0.0003356984817273213,0.001846341649500267
0.002014190890363927,0.004196231021591517
-0.0003356984817273213,-0.0015106431677729458
-0.0003356984817273213,-0.009063859006637675
-0.0030212863355458916,-0.017959868772411687
0.0023498893720912484,-0.021652552071412222
0.0050354772259098195,-0.020309758144502935
0.007049668116273747,-0.020477607385366595
0.010406652933546959,-0.019806210421911954
0.011749446860456245,-0.020477607385366595
0.013092240787365528,-0.021820401312275882
0.007721065079728388,-0.028030823224231328
0.010406652933546959,-0.037262531471732654
0.016449225604638743,-0.044647898069733724
0.014435034714274816,-0.05119401846341649
0.012420843823910887,-0.056900892652780956
0.014435034714274816,-0.06160067139696345
0.012085145342183566,-0.060593575951781484
0.009063859006637675,-0.05656519417105363
0.007721065079728388,-0.05522240024414436
0.007721065079728388,-0.05824368657969024
0.004364080262455177,-0.06630045014114595
0.008392462043183033,-0.06797894254978255
0.009063859006637675,-0.06327916380560006
0.007721065079728388,-0.056900892652780956
0.0023498893720912484,-0.05656519417105363
0.0010070954451819635,-0.060761425192645144
0.002014190890363927,-0.061936369878690785
-0.0016784924086366065,-0.061936369878690785
0.0010070954451819635,-0.05958648050659952
0.0050354772259098195,-0.05824368657969024
-0.0013427939269092851,-0.05471885252155337
-0.0016784924086366065,-0.050522621499961846
0.0016784924086366065,-0.05387960631723506
0.0050354772259098195,-0.06260776684214542
0.011078049897001601,-0.074189364461738
0.0157778286411841,-0.08207827878233005
0.01376363775082017,-0.0767071030746929
0.010406652933546959,-0.060593575951781484
0.014435034714274816,-0.03944457160296025
0.009063859006637675,-0.011749446860456245
0.002014190890363927,0.01527428091859312
-0.0010070954451819635,0.03675898374914168
-0.002014190890363927,0.04414435034714275
-0.0050354772259098195,0.03608758678568704
-0.011078049897001601,0.016449225604638743
-0.004364080262455177,-0.01359578850995651
0.002014190890363927,-0.036423285267414354
-0.005706874189364461,-0.04414435034714275
-0.011749446860456245,-0.03910887312123293
-0.011749446860456245,-0.03105210955977722
-0.007049668116273747,-0.028366521705958644
-0.0023498893720912484,-0.029709315632867935
-0.003692683299000534,-0.03189135576409552
-0.011749446860456245,-0.030045014114595252
-0.011749446860456245,-0.026352330815594724
-0.0016784924086366065,-0.023163195239185166
-0.0030212863355458916,-0.024338139925230793
-0.011078049897001601,-0.027359426260776684
-0.007049668116273747,-0.029709315632867935
-0.0003356984817273213,-0.033066300450141146
-0.003692683299000534,-0.033066300450141146
-0.009735255970092317,-0.029709315632867935
-0.004364080262455177,-0.022323949034866862
0.0030212863355458916,-0.01628137636377508
0.003356984817273213,-0.017624170290684367
0.002014190890363927,-0.025680933852140077
0.0010070954451819635,-0.03776607919432364
0.0050354772259098195,-0.044480048828870064
0.010406652933546959,-0.03944457160296025
0.013092240787365528,-0.033401998931868467
0.010406652933546959,-0.030716411078049892
0.0157778286411841,-0.027023727779049357
0.023834592202639806,-0.021652552071412222
0.021820401312275882,-0.014267185473411156
0.016449225604638743,-0.009567406729228655
0.01846341649500267,-0.009231708247501335
0.017120622568093383,-0.01695277332722972
0.017120622568093383,-0.032730601968413826
0.006042572671091783,-0.041794460975051496
0.009735255970092317,-0.04145876249332417
0.011078049897001601,-0.033401998931868467
0.003356984817273213,-0.025680933852140077
0.0050354772259098195,-0.024338139925230793
0.0050354772259098195,-0.027359426260776684
0.006378271152819104,-0.03508049134050507
0.007385366598001068,-0.03910887312123293
0.012420843823910887,-0.042465857938506144
0.009063859006637675,-0.044480048828870064
0.006042572671091783,-0.044480048828870064
0.008728160524910353,-0.043976501106279084
0.004364080262455177,-0.044815747310597384
-0.0030212863355458916,-0.050186923018234526
0.0023498893720912484,-0.05253681239032577
0.010406652933546959,-0.04716563668268864
0.013092240787365528,-0.040451667048142216
0.004699778744182497,-0.03373769741359579
-0.007385366598001068,-0.028702220187685965
-0.012756542305638208,-0.03105210955977722
-0.011749446860456245,-0.03776607919432364
-0.007385366598001068,-0.040451667048142216
-0.006042572671091783,-0.03843747615777828
0.0010070954451819635,-0.03843747615777828
0.0050354772259098195,-0.03978027008468757
0.006378271152819104,-0.037094682230869
-0.007049668116273747,-0.03256275272755016
-0.0003356984817273213,-0.02366674296177615
0.012756542305638208,-0.01628137636377508
0.01376363775082017,-0.017624170290684367
0.010070954451819639,-0.029709315632867935
0.007721065079728388,-0.041794460975051496
0.0157778286411841,-0.04615854123750667
0.017120622568093383,-0.049347676813916226
0.006042572671091783,-0.051865415426871134
0.006378271152819104,-0.058075837338826576
0.01376363775082017,-0.07301441977569237
0.013092240787365528,-0.092484931715877
0.010406652933546959,-0.10691996643015184
0.007721065079728388,-0.10457007705806058
0.009735255970092317,-0.10171663996337835
0.010406652933546959,-0.09684901197833219
0.007049668116273747,-0.08274967574578469
0.006378271152819104,-0.06730754558632791
0.0050354772259098195,-0.051865415426871134
0.0050354772259098195,-0.036423285267414354
0.0003356984817273213,-0.014938582436865796
-0.0016784924086366065,0.008896009765774012
0.002014190890363927,0.030716411078049892
0.004364080262455177,0.04917982757305257
0.0030212863355458916,0.05085831998168917
-0.01376363775082017,0.03743038071259632
-0.011078049897001601,0.021988250553139542
0.0006713969634546426,0.008224612802319372
-0.003692683299000534,-0.004196231021591517
-0.005706874189364461,-0.020309758144502935
-0.0030212863355458916,-0.03659113450827802
-0.0003356984817273213,-0.04313725490196078
0.0016784924086366065,-0.041123064011596856
0.006378271152819104,-0.03121995880064088
0.0050354772259098195,-0.026352330815594724
0.0023498893720912484,-0.03172350652323186
0.008728160524910353,-0.03978027008468757
0.009735255970092317,-0.043808651865415424
0.007721065079728388,-0.03843747615777828
0.007721065079728388,-0.030716411078049892
0.008728160524910353,-0.022491798275730522
0.009063859006637675,-0.019302662699320974
0.0003356984817273213,-0.022491798275730522
0.0050354772259098195,-0.027023727779049357
0.010406652933546959,-0.03121995880064088
0.0023498893720912484,-0.03373769741359579
-0.002014190890363927,-0.036423285267414354
-0.0050354772259098195,-0.03440909437705043
-0.005706874189364461,-0.029709315632867935
-0.0030212863355458916,-0.0260166323338674
-0.0016784924086366065,-0.023163195239185166
-0.006378271152819104,-0.024505989166094453
-0.005706874189364461,-0.026352330815594724
0.0003356984817273213,-0.028702220187685965
-0.004364080262455177,-0.027023727779049357
-0.009063859006637675,-0.02366674296177615
-0.0050354772259098195,-0.027695124742504008
0.0016784924086366065,-0.03474479285877775
-0.0003356984817273213,-0.04313725490196078
-0.0030212863355458916,-0.05354390783550774
-0.0003356984817273213,-0.06260776684214542
0.0016784924086366065,-0.07167162584878309
-0.0050354772259098195,-0.07737850003814756
-0.006042572671091783,-0.07368581673914701
-0.0003356984817273213,-0.05992217898832684
0.002014190890363927,-0.03608758678568704
0.0023498893720912484,-0.01628137636377508
0.0023498893720912484,-0.005706874189364461
0.0010070954451819635,-0.0008392462043183033
0.0016784924086366065,-0.004867627985046159
0.012420843823910887,-0.014267185473411156
0.007721065079728388,-0.024338139925230793
-0.0023498893720912484,-0.028702220187685965
-0.0010070954451819635,-0.03105210955977722
0.006378271152819104,-0.03508049134050507
0.011749446860456245,-0.037262531471732654
0.003692683299000534,-0.040451667048142216
0.0010070954451819635,-0.03978027008468757
0.013092240787365528,-0.035416189822232394
0.01846341649500267,-0.030380712596322572
0.016449225604638743,-0.02937361715114061
0.015442130159456776,-0.037094682230869
0.014099336232547494,-0.04917982757305257
0.016784924086366067,-0.06294346532387274
0.021149004348821242,-0.07217517357137408
0.017792019531548024,-0.07435721370260165
0.012420843823910887,-0.06764324406805522
0.013092240787365528,-0.062272068360418105
0.007721065079728388,-0.06529335469596398
0.007721065079728388,-0.07100022888532845
0.008392462043183033,-0.07435721370260165
0.009735255970092317,-0.07402151522087433
0.013092240787365528,-0.06764324406805522
0.006378271152819104,-0.06462195773250935
0.011078049897001601,-0.06462195773250935
0.016449225604638743,-0.05874723430228122
0.015106431677729458,-0.0481727321278706
0.013092240787365528,-0.03675898374914168
0.011749446860456245,-0.03440909437705043
0.017792019531548024,-0.037094682230869
0.022491798275730522,-0.03860532539864195
0.023834592202639806,-0.037094682230869
0.01846341649500267,-0.03205920500495917
0.006378271152819104,-0.028702220187685965
0.005706874189364461,-0.024338139925230793
0.004699778744182497,-0.021652552071412222
-0.004699778744182497,-0.022323949034866862
-0.006713969634546426,-0.02366674296177615
-0.0003356984817273213,-0.030380712596322572
0.0003356984817273213,-0.03390554665445944
-0.0023498893720912484,-0.03054856183718624
-0.003692683299000534,-0.021820401312275882
0.0010070954451819635,-0.013092240787365528
0.002014190890363927,-0.009903105210955977
0.003692683299000534,-0.011413748378728923
-0.0003356984817273213,-0.01896696421759365
0.0003356984817273213,-0.02366674296177615
0.004364080262455177,-0.021988250553139542
0.012756542305638208,-0.016617074845502403
0.007721065079728388,-0.011245899137865261
-0.007049668116273747,-0.009567406729228655
-0.005706874189364461,-0.011581597619592583
-0.007049668116273747,-0.01560997940032044
-0.011078049897001601,-0.019302662699320974
-0.007049668116273747,-0.020981155107957578
-0.006378271152819104,-0.024505989166094453
-0.007049668116273747,-0.029037918669413288
-0.009063859006637675,-0.027023727779049357
-0.0010070954451819635,-0.0213168535896849
0.0023498893720912484,-0.0157778286411841
0.0010070954451819635,-0.01594567788204776
0.0023498893720912484,-0.020645456626230255
0.006378271152819104,-0.028366521705958644
0.011078049897001601,-0.03440909437705043
0.011749446860456245,-0.036423285267414354
0.012420843823910887,-0.037094682230869
0.0050354772259098195,-0.03508049134050507
-0.0003356984817273213,-0.03390554665445944
0.007721065079728388,-0.035416189822232394
0.006378271152819104,-0.04145876249332417
-0.0023498893720912484,-0.05253681239032577
-0.0023498893720912484,-0.05622949568932631
0.0030212863355458916,-0.05253681239032577
0.0016784924086366065,-0.04783703364614328
-0.004364080262455177,-0.04783703364614328
0.0016784924086366065,-0.05421530479896238
0.0050354772259098195,-0.06126497291523613
0.0023498893720912484,-0.06092927443350881
0.0030212863355458916,-0.04783703364614328
-0.0010070954451819635,-0.027359426260776684
0.0010070954451819635,-0.008896009765774012
-0.0003356984817273213,0.008224612802319372
0.0010070954451819635,0.018631265735866327
-0.0030212863355458916,0.01695277332722972
-0.005706874189364461,0.0028534370946822307
-0.0006713969634546426,-0.017959868772411687
-0.0030212863355458916,-0.03407339589532311
-0.008392462043183033,-0.048508430609597926
-0.008728160524910353,-0.06025787747005417
-0.005706874189364461,-0.05824368657969024
-0.0030212863355458916,-0.04599069199664301
-0.004364080262455177,-0.026352330815594724
0.0010070954451819635,-0.007217517357137408
0.013092240787365528,0.003189135576409552
0.011749446860456245,0.0028534370946822307
0.014435034714274816,-0.005874723430228122
0.023163195239185166,-0.01628137636377508
0.02752727550164034,-0.027023727779049357
0.021149004348821242,-0.03138780804150454
0.010406652933546959,-0.030380712596322572
0.003356984817273213,-0.03373769741359579
-0.0016784924086366065,-0.04414435034714275
0.0050354772259098195,-0.05555809872587166
0.004364080262455177,-0.058075837338826576
0.0010070954451819635,-0.05337605859464408
0.0023498893720912484,-0.042801556420233464
0.007721065079728388,-0.03256275272755016
0.008392462043183033,-0.029205767910276948
-0.0030212863355458916,-0.028702220187685965
-0.0016784924086366065,-0.028030823224231328
0.003692683299000534,-0.02349889372091249
0.0050354772259098195,-0.021652552071412222
0.004364080262455177,-0.023163195239185166
0.0006713969634546426,-0.023834592202639806
-0.0023498893720912484,-0.027023727779049357
-0.0003356984817273213,-0.032730601968413826
-0.0010070954451819635,-0.03843747615777828
-0.0050354772259098195,-0.041794460975051496
-0.007049668116273747,-0.040451667048142216
0.0016784924086366065,-0.04213015945677882
0.003692683299000534,-0.04666208896009766
-0.0023498893720912484,-0.05119401846341649
-0.0030212863355458916,-0.05790798809796292
0.0050354772259098195,-0.06294346532387274
0.0050354772259098195,-0.07267872129396505
-0.0010070954451819635,-0.08812085145342184
0.0023498893720912484,-0.10708781567101548
0.009735255970092317,-0.12202639810788128
0.003692683299000534,-0.11833371480888075
0.0003356984817273213,-0.09282063019760432
0.0010070954451819635,-0.044815747310597384
0.010406652933546959,0.008392462043183033
0.007049668116273747,0.043808651865415424
0.005706874189364461,0.05790798809796292
0.007049668116273747,0.05555809872587166
0.003692683299000534,0.04783703364614328
0.0023498893720912484,0.03189135576409552
-0.004699778744182497,0.010238803692683297
-0.0003356984817273213,-0.01326009002822919
0.009063859006637675,-0.03508049134050507
0.016784924086366067,-0.04917982757305257
0.01812771801327535,-0.05488670176241703
0.0050354772259098195,-0.05522240024414436
0.0010070954451819635,-0.055390249485008015
0.0016784924086366065,-0.053208209353780414
-0.0003356984817273213,-0.04800488288700694
0.0050354772259098195,-0.04682993820096131
0.006378271152819104,-0.051865415426871134
0.006378271152819104,-0.057572289616235596
0.0010070954451819635,-0.06160067139696345
-0.0003356984817273213,-0.06025787747005417
0.003692683299000534,-0.059250782024872196
0.0023498893720912484,-0.05958648050659952
0.007721065079728388,-0.060593575951781484
0.0050354772259098195,-0.060593575951781484
-0.004364080262455177,-0.05555809872587166
-0.0030212863355458916,-0.05119401846341649
0.0003356984817273213,-0.050019073777370866
0.0010070954451819635,-0.050186923018234526
-0.005706874189364461,-0.05119401846341649
-0.0030212863355458916,-0.04783703364614328
0.0050354772259098195,-0.041123064011596856
0.003692683299000534,-0.03121995880064088
0.002014190890363927,-0.028030823224231328
0.003692683299000534,-0.03407339589532311
0.007721065079728388,-0.042465857938506144
0.014435034714274816,-0.0528725108720531
0.020477607385366595,-0.057236591134508276
0.0157778286411841,-0.057236591134508276
0.011413748378728923,-0.05354390783550774
0.012420843823910887,-0.04917982757305257
0.011078049897001601,-0.04917982757305257
0.010406652933546959,-0.049851224536507206
0.014099336232547494,-0.05387960631723506
0.017792019531548024,-0.060593575951781484
0.01913481345845731,-0.061432822156099784
0.010406652933546959,-0.05488670176241703
0.015106431677729458,-0.04615854123750667
0.020813305867093918,-0.044480048828870064
0.009735255970092317,-0.048508430609597926
0.0050354772259098195,-0.053208209353780414
0.006378271152819104,-0.05555809872587166
0.009735255970092317,-0.052201113908598454
0.008392462043183033,-0.048844129091325246
0.005706874189364461,-0.050522621499961846
0.0003356984817273213,-0.05085831998168917
-0.007049668116273747,-0.04682993820096131
-0.0010070954451819635,-0.03843747615777828
-0.0030212863355458916,-0.033401998931868467
-0.006378271152819104,-0.03407339589532311
-0.0003356984817273213,-0.03843747615777828
0.010406652933546959,-0.0426337071793698
0.0157778286411841,-0.042465857938506144
0.013092240787365528,-0.03776607919432364
0.012420843823910887,-0.032730601968413826
0.011749446860456245,-0.033066300450141146
0.004364080262455177,-0.03743038071259632
0.0030212863355458916,-0.04313725490196078
0.0010070954451819635,-0.050186923018234526
0.004364080262455177,-0.05522240024414436
0.0050354772259098195,-0.05790798809796292
-0.0010070954451819635,-0.05656519417105363
-0.004364080262455177,-0.04917982757305257
-0.008728160524910353,-0.04213015945677882
-0.0003356984817273213,-0.03910887312123293
-0.0030212863355458916,-0.044480048828870064
-0.012420843823910887,-0.04783703364614328
-0.015442130159456776,-0.041794460975051496
-0.009735255970092317,-0.029037918669413288
-0.007049668116273747,-0.021652552071412222
-0.007721065079728388,-0.0260166323338674
0.0003356984817273213,-0.036423285267414354
0.010406652933546959,-0.04313725490196078
0.010406652933546959,-0.04011596856641489
0.005706874189364461,-0.025009536888685433
0.0030212863355458916,-0.01359578850995651
0.010406652933546959,-0.01359578850995651
0.014435034714274816,-0.017288471808957043
0.010070954451819639,-0.022995345998321506
0.004364080262455177,-0.029037918669413288
0.0023498893720912484,-0.03944457160296025
0.008392462043183033,-0.048508430609597926
0.004699778744182497,-0.04783703364614328
0.0023498893720912484,-0.03860532539864195
0.009063859006637675,-0.020981155107957578
0.0157778286411841,-0.0015106431677729458
0.010406652933546959,0.01628137636377508
-0.006378271152819104,0.0260166323338674
-0.011078049897001601,0.02265964751659419
-0.0003356984817273213,0.009735255970092317
0.0010070954451819635,-0.009903105210955977
-0.0010070954451819635,-0.025009536888685433
-0.0006713969634546426,-0.03172350652323186
0.0050354772259098195,-0.029709315632867935
0.009735255970092317,-0.025680933852140077
0.009063859006637675,-0.022995345998321506
0.007721065079728388,-0.026352330815594724
0.004364080262455177,-0.03457694361791409
0.006378271152819104,-0.040451667048142216
0.006378271152819104,-0.040451667048142216
0.0010070954451819635,-0.037262531471732654
0.0016784924086366065,-0.03440909437705043
-0.0006713969634546426,-0.03843747615777828
-0.0030212863355458916,-0.043472953383688104
-0.008392462043183033,-0.044815747310597384
-0.003692683299000534,-0.044815747310597384
0.0050354772259098195,-0.04682993820096131
0.0003356984817273213,-0.05589379720759898
-0.004364080262455177,-0.064789806973373
-0.004364080262455177,-0.06327916380560006
-0.0010070954451819635,-0.053208209353780414
0.004364080262455177,-0.036423285267414354
0.007385366598001068,-0.020645456626230255
0.003692683299000534,-0.009567406729228655
-0.0030212863355458916,-0.0035248340581368735
0.007049668116273747,-0.004196231021591517
0.009735255970092317,-0.0050354772259098195
0.0050354772259098195,-0.009903105210955977
0.013092240787365528,-0.012420843823910887
0.019806210421911954,-0.011245899137865261
0.021149004348821242,-0.011917296101319903
0.0157778286411841,-0.01628137636377508
0.017120622568093383,-0.02366674296177615
0.017792019531548024,-0.026352330815594724
0.014099336232547494,-0.024673838406958113
0.014435034714274816,-0.020645456626230255
0.014099336232547494,-0.017624170290684367
0.015442130159456776,-0.02265964751659419
0.013092240787365528,-0.03105210955977722
0.010406652933546959,-0.035416189822232394
0.003356984817273213,-0.0315556572823682
-0.0050354772259098195,-0.02366674296177615
0.0010070954451819635,-0.014435034714274816
0.0050354772259098195,-0.006210421911955443
0.0016784924086366065,-0.008224612802319372
-0.0016784924086366065,-0.017624170290684367
-0.004364080262455177,-0.024673838406958113
-0.004364080262455177,-0.02937361715114061
-0.011078049897001601,-0.035751888303959714
-0.009063859006637675,-0.043976501106279084
-0.0003356984817273213,-0.05119401846341649
-0.0050354772259098195,-0.05119401846341649
-0.008392462043183033,-0.049851224536507206
-0.0050354772259098195,-0.04313725490196078
-0.004364080262455177,-0.03558403906309605
-0.0030212863355458916,-0.03172350652323186
-0.0010070954451819635,-0.032898451209277486
-0.004364080262455177,-0.036423285267414354
-0.0016784924086366065,-0.03675898374914168
0.003692683299000534,-0.03910887312123293
0.002014190890363927,-0.037094682230869
-0.002014190890363927,-0.033066300450141146
-0.0030212863355458916,-0.0323949034866865
0.004364080262455177,-0.036423285267414354
0.013092240787365528,-0.044480048828870064
0.010406652933546959,-0.05119401846341649
0.012420843823910887,-0.055390249485008015
0.010406652933546959,-0.05522240024414436
0.010406652933546959,-0.05790798809796292
0.009735255970092317,-0.07200732433051041
0.009063859006637675,-0.08744945448996719
0.011749446860456245,-0.09617761501487754
0.015106431677729458,-0.09164568551155872
0.014435034714274816,-0.0772106507972839
0.004699778744182497,-0.05589379720759898
-0.009735255970092317,-0.03105210955977722
-0.012420843823910887,-0.009567406729228655
-0.005706874189364461,0.0035248340581368735
-0.0030212863355458916,0.00788891432059205
-0.0030212863355458916,0.0025177386129549098
0.0050354772259098195,-0.009735255970092317
0.006378271152819104,-0.02333104448004883
0.0016784924086366065,-0.03440909437705043
0.0050354772259098195,-0.037094682230869
0.012420843823910887,-0.033066300450141146
0.005706874189364461,-0.02366674296177615
0.0016784924086366065,-0.01829556725413901
0.004699778744182497,-0.017959868772411687
0.013092240787365528,-0.017959868772411687
0.021820401312275882,-0.019806210421911954
0.021149004348821242,-0.022995345998321506
0.017120622568093383,-0.028030823224231328
0.012420843823910887,-0.027023727779049357
0.0157778286411841,-0.022323949034866862
0.01846341649500267,-0.019302662699320974
0.013092240787365528,-0.019638361181048294
0.011749446860456245,-0.02333104448004883
0.017792019531548024,-0.025009536888685433
0.0157778286411841,-0.024338139925230793
0.007721065079728388,-0.019302662699320974
-0.0003356984817273213,-0.017624170290684367
-0.0050354772259098195,-0.026352330815594724
-0.008392462043183033,-0.03508049134050507
-0.007721065079728388,-0.041123064011596856
-0.006378271152819104,-0.042465857938506144
-0.0030212863355458916,-0.041794460975051496
-0.007721065079728388,-0.03978027008468757
-0.011078049897001601,-0.03843747615777828
-0.011078049897001601,-0.041794460975051496
-0.011078049897001601,-0.050522621499961846
-0.002014190890363927,-0.06898603799496453
-0.0016784924086366065,-0.09282063019760432
-0.009063859006637675,-0.1062485694666972
-0.003692683299000534,-0.10775921263447012
0.003692683299000534,-0.09752040894178682
0.006378271152819104,-0.07402151522087433
0.0023498893720912484,-0.04515144579232471
0.007049668116273747,-0.017624170290684367
0.016449225604638743,0.0025177386129549098
0.014435034714274816,0.01326009002822919
0.005706874189364461,0.014267185473411156
-0.0003356984817273213,0.001846341649500267
0.0006713969634546426,-0.010910200656137941
0.0030212863355458916,-0.01829556725413901
0.005706874189364461,-0.023163195239185166
0.0023498893720912484,-0.029037918669413288
-0.0003356984817273213,-0.03776607919432364
0.007721065079728388,-0.04783703364614328
0.008392462043183033,-0.05824368657969024
0.0050354772259098195,-0.06126497291523613
0.0050354772259098195,-0.05790798809796292
0.0050354772259098195,-0.050186923018234526
0.004364080262455177,-0.04649423971923399
0.0003356984817273213,-0.0473334859235523
0.003692683299000534,-0.051865415426871134
0.006378271152819104,-0.060593575951781484
0.003356984817273213,-0.0639505607690547
0.0023498893720912484,-0.06109712367437248
0.007049668116273747,-0.05522240024414436
0.009735255970092317,-0.04783703364614328
0.009735255970092317,-0.04515144579232471
0.006042572671091783,-0.049851224536507206
0.0030212863355458916,-0.061432822156099784
0.0023498893720912484,-0.06965743495841917
0.0050354772259098195,-0.06613260090028229
0.0023498893720912484,-0.058915083543144876
0.0003356984817273213,-0.052201113908598454
-0.0003356984817273213,-0.043472953383688104
0.003692683299000534,-0.030380712596322572
-0.0030212863355458916,-0.01359578850995651
-0.01376363775082017,-0.0023498893720912484
-0.011078049897001601,-0.0015106431677729458
-0.0003356984817273213,-0.012252994583047227
-0.0003356984817273213,-0.029037918669413288
-0.0010070954451819635,-0.03675898374914168
-0.003692683299000534,-0.03508049134050507
0.0016784924086366065,-0.028366521705958644
0.0023498893720912484,-0.025680933852140077
0.005706874189364461,-0.0260166323338674
0.003692683299000534,-0.028702220187685965
0.0023498893720912484,-0.035751888303959714
0.009735255970092317,-0.04129091325246051
0.011749446860456245,-0.04515144579232471
0.007049668116273747,-0.043305104142824444
0.009735255970092317,-0.03440909437705043
0.012420843823910887,-0.026352330815594724
0.009063859006637675,-0.021988250553139542
-0.0003356984817273213,-0.019974059662775615
0.0023498893720912484,-0.014938582436865796
0.009063859006637675,-0.0055390249485008005
0.008392462043183033,0.005874723430228122
-0.0003356984817273213,0.013931486991683832
-0.005706874189364461,0.014938582436865796
0.0006713969634546426,0.005874723430228122
0.005706874189364461,-0.004867627985046159
0.006378271152819104,-0.008224612802319372
-0.0010070954451819635,-0.006881818875410085
-0.007049668116273747,-0.012252994583047227
0.0003356984817273213,-0.024338139925230793
0.0030212863355458916,-0.03172350652323186
0.006378271152819104,-0.03508049134050507
0.009063859006637675,-0.033401998931868467
0.012420843823910887,-0.03138780804150454
0.014435034714274816,-0.03558403906309605
0.007049668116273747,-0.04582284275577936
0.008392462043183033,-0.053208209353780414
0.010406652933546959,-0.050522621499961846
0.004364080262455177,-0.04414435034714275
0.003692683299000534,-0.036423285267414354
0.003692683299000534,-0.03457694361791409
0.006378271152819104,-0.03910887312123293
0.007049668116273747,-0.0426337071793698
0.007721065079728388,-0.04582284275577936
0.0023498893720912484,-0.044480048828870064
0.0016784924086366065,-0.044480048828870064
0.008392462043183033,-0.041123064011596856
0.006378271152819104,-0.03440909437705043
0.0016784924086366065,-0.0323949034866865
0.0030212863355458916,-0.03440909437705043
0.010406652933546959,-0.03978027008468757
0.009735255970092317,-0.04313725490196078
0.009735255970092317,-0.042801556420233464
0.021149004348821242,-0.03860532539864195
0.024505989166094453,-0.0323949034866865
0.014435034714274816,-0.03172350652323186
0.009063859006637675,-0.03910887312123293
0.007721065079728388,-0.04548714427405204
0.012420843823910887,-0.04582284275577936
0.011749446860456245,-0.042801556420233464
0.007721065079728388,-0.044480048828870064
0.007049668116273747,-0.05085831998168917
0.0023498893720912484,-0.0528725108720531
0.009735255970092317,-0.049851224536507206
0.009063859006637675,-0.040451667048142216
0.008392462043183033,-0.033401998931868467
0.008728160524910353,-0.035416189822232394
0.0050354772259098195,-0.04313725490196078
-0.0016784924086366065,-0.04917982757305257
-0.008392462043183033,-0.04649423971923399
-0.007721065079728388,-0.04145876249332417
-0.006378271152819104,-0.03659113450827802
-0.004364080262455177,-0.03457694361791409
-0.0023498893720912484,-0.035751888303959714
0.0,-0.035751888303959714
0.0,-0.03675898374914168
0.0,-0.03776607919432364
0.0,-0.03910887312123293
0.0,-0.037094682230869
0.0,-0.0323949034866865
0.0,-0.03172350652323186
0.0,-0.03810177767605096
0.0,-0.050019073777370866
0.0,-0.061936369878690785
0.0,-0.07536430914778362
0.0,-0.08711375600823987
0.0,-0.09483482108796826
0.0,-0.09768825818265049
0.0,-0.0908064393072404
0.0,-0.0703288319218738
0.0,-0.03944457160296025
0.0023498893720912484,-0.0028534370946822307
0.007049668116273747,0.02668802929732204
0.01376363775082017,0.042465857938506144
0.008728160524910353,0.0481727321278706
-0.008392462043183033,0.043808651865415424
-0.014435034714274816,0.03189135576409552
-0.005706874189364461,0.009231708247501335
0.002014190890363927,-0.017792019531548024
0.0050354772259098195,-0.03978027008468757
0.009063859006637675,-0.057236591134508276
0.01846341649500267,-0.06596475165941862
0.021820401312275882,-0.06596475165941862
0.014435034714274816,-0.059250782024872196
0.017792019531548024,-0.053208209353780414
0.019806210421911954,-0.051361867704280154
0.013092240787365528,-0.051865415426871134
0.007721065079728388,-0.05656519417105363
0.003692683299000534,-0.061936369878690785
0.0023498893720912484,-0.0639505607690547
0.0006713969634546426,-0.059250782024872196
0.0010070954451819635,-0.04917982757305257
0.0010070954451819635,-0.04213015945677882
0.0030212863355458916,-0.040451667048142216
0.013092240787365528,-0.04313725490196078
0.015106431677729458,-0.04313725490196078
0.006378271152819104,-0.040451667048142216
0.003356984817273213,-0.03810177767605096
0.004364080262455177,-0.037262531471732654
-0.0030212863355458916,-0.040451667048142216
-0.010406652933546959,-0.043808651865415424
-0.0050354772259098195,-0.048508430609597926
0.0016784924086366065,-0.05119401846341649
0.004364080262455177,-0.049347676813916226
0.0016784924086366065,-0.049851224536507206
0.0003356984817273213,-0.05522240024414436
0.002014190890363927,-0.05790798809796292
0.0010070954451819635,-0.05555809872587166
0.0010070954451819635,-0.049851224536507206
-0.002014190890363927,-0.05119401846341649
-0.0030212863355458916,-0.05522240024414436
0.007049668116273747,-0.05790798809796292
0.011078049897001601,-0.06025787747005417
0.007721065079728388,-0.05857938506141757
0.007049668116273747,-0.054551003280689715
0.0023498893720912484,-0.048844129091325246
0.0010070954451819635,-0.043976501106279084
-0.0030212863355458916,-0.041794460975051496
-0.0030212863355458916,-0.040451667048142216
0.006042572671091783,-0.04213015945677882
0.007049668116273747,-0.041794460975051496
0.004699778744182497,-0.03860532539864195
0.0050354772259098195,-0.0323949034866865
0.011749446860456245,-0.02937361715114061
0.013092240787365528,-0.03474479285877775
0.0157778286411841,-0.041123064011596856
0.0157778286411841,-0.04599069199664301
0.011749446860456245,-0.03843747615777828
0.0157778286411841,-0.01913481345845731
0.007721065079728388,0.0015106431677729458
0.0030212863355458916,0.01628137636377508
0.004364080262455177,0.02366674296177615
0.010406652933546959,0.026352330815594724
0.011749446860456245,0.02265964751659419
0.004364080262455177,0.014602883955138474
0.006378271152819104,0.006042572671091783
0.013092240787365528,-0.010238803692683297
0.01376363775082017,-0.033066300450141146
0.013092240787365528,-0.04414435034714275
0.012420843823910887,-0.04313725490196078
0.010406652933546959,-0.03910887312123293
0.006378271152819104,-0.03675898374914168
0.006378271152819104,-0.03743038071259632
0.0050354772259098195,-0.040451667048142216
0.0023498893720912484,-0.042465857938506144
0.004364080262455177,-0.03843747615777828
0.003692683299000534,-0.03105210955977722
-0.0003356984817273213,-0.02333104448004883
0.0050354772259098195,-0.020309758144502935
0.011749446860456245,-0.022323949034866862
0.003692683299000534,-0.03373769741359579
-0.006378271152819104,-0.050186923018234526
-0.0030212863355458916,-0.05522240024414436
0.004364080262455177,-0.04682993820096131
0.0030212863355458916,-0.033066300450141146
0.0023498893720912484,-0.020477607385366595
0.007049668116273747,-0.012252994583047227
0.007721065079728388,-0.007553215838864729
0.011413748378728923,-0.009903105210955977
0.014435034714274816,-0.01359578850995651
0.011749446860456245,-0.014938582436865796
0.010406652933546959,-0.015106431677729458
0.0157778286411841,-0.011581597619592583
0.009735255970092317,-0.00788891432059205
0.007721065079728388,-0.006210421911955443
0.007721065079728388,-0.006210421911955443
0.0050354772259098195,-0.006881818875410085
0.0023498893720912484,-0.008392462043183033
-0.008392462043183033,-0.01628137636377508
-0.010070954451819639,-0.024338139925230793
-0.007385366598001068,-0.024673838406958113
-0.007049668116273747,-0.025680933852140077
-0.005706874189364461,-0.025177386129549097
-0.003692683299000534,-0.024338139925230793
-0.0016784924086366065,-0.024505989166094453
-0.0023498893720912484,-0.025009536888685433
-0.0030212863355458916,-0.025680933852140077
-0.006378271152819104,-0.022995345998321506
-0.007049668116273747,-0.020981155107957578
0.0006713969634546426,-0.014267185473411156
-0.003692683299000534,-0.008392462043183033
-0.009735255970092317,-0.014267185473411156
-0.009063859006637675,-0.03508049134050507
-0.004364080262455177,-0.058915083543144876
0.007721065079728388,-0.07167162584878309
0.0016784924086366065,-0.07133592736705577
-0.008728160524910353,-0.05992217898832684
-0.009063859006637675,-0.044815747310597384
-0.005706874189364461,-0.03373769741359579
0.0010070954451819635,-0.02333104448004883
0.003356984817273213,-0.01359578850995651
0.0010070954451819635,-0.0003356984817273213
0.0023498893720912484,0.004531929503318838
0.007721065079728388,-0.0005035477225909818
0.0053711757076371405,-0.0055390249485008005
0.0016784924086366065,-0.012252994583047227
0.008392462043183033,-0.0213168535896849
0.007721065079728388,-0.028366521705958644
0.0016784924086366065,-0.03172350652323186
0.0016784924086366065,-0.032898451209277486
0.006378271152819104,-0.040451667048142216
0.009063859006637675,-0.050522621499961846
0.004364080262455177,-0.060593575951781484
0.006378271152819104,-0.07016098268101013
0.013092240787365528,-0.07133592736705577
0.011749446860456245,-0.06932173647669183
0.009063859006637675,-0.06965743495841917
0.009063859006637675,-0.07335011825741969
0.0030212863355458916,-0.07603570611123828
0.0023498893720912484,-0.06932173647669183
0.0050354772259098195,-0.060593575951781484
0.0050354772259098195,-0.059250782024872196
0.0010070954451819635,-0.07200732433051041
0.009063859006637675,-0.09919890135042343
0.007721065079728388,-0.12437628747997252
0.0023498893720912484,-0.13545433737697413
0.006378271152819104,-0.1270618753337911
0.005706874189364461,-0.10557717250324253
0.0016784924086366065,-0.07570000762951096
-0.007721065079728388,-0.04649423971923399
-0.005706874189364461,-0.020645456626230255
0.0010070954451819635,0.0008392462043183033
-0.0010070954451819635,0.012588693064774548
-0.007721065079728388,0.010574502174410621
-0.011078049897001601,-0.0003356984817273213
-0.007049668116273747,-0.008896009765774012
-0.0003356984817273213,-0.01326009002822919
0.004364080262455177,-0.021652552071412222
0.0023498893720912484,-0.03508049134050507
0.0023498893720912484,-0.048508430609597926
0.009063859006637675,-0.056900892652780956
0.009735255970092317,-0.05992217898832684
0.004699778744182497,-0.06160067139696345
-0.0016784924086366065,-0.06462195773250935
-0.0016784924086366065,-0.06932173647669183
0.003692683299000534,-0.07200732433051041
0.0023498893720912484,-0.06680399786373693
0.0050354772259098195,-0.06378271152819104
0.011749446860456245,-0.0639505607690547
0.0157778286411841,-0.064789806973373
0.01376363775082017,-0.06495765621423667
0.011413748378728923,-0.05857938506141757
0.015106431677729458,-0.04599069199664301
0.013092240787365528,-0.029709315632867935
0.012420843823910887,-0.022995345998321506
0.007049668116273747,-0.029709315632867935
0.004364080262455177,-0.03978027008468757
0.006378271152819104,-0.051529716945143814
0.012420843823910887,-0.06025787747005417
0.009063859006637675,-0.062272068360418105
0.013092240787365528,-0.05622949568932631
0.020477607385366595,-0.044815747310597384
0.021149004348821242,-0.03508049134050507
0.010406652933546959,-0.026352330815594724
0.0010070954451819635,-0.022995345998321506
0.004028381780727854,-0.021820401312275882
0.0023498893720912484,-0.01913481345845731
0.0010070954451819635,-0.012588693064774548
0.0023498893720912484,-0.007049668116273747
0.0023498893720912484,-0.009567406729228655
0.0016784924086366065,-0.01695277332722972
0.0023498893720912484,-0.027023727779049357
0.0010070954451819635,-0.033401998931868467
-0.004364080262455177,-0.030045014114595252
0.0050354772259098195,-0.024338139925230793
0.013092240787365528,-0.026352330815594724
0.008392462043183033,-0.030380712596322572
0.007721065079728388,-0.030380712596322572
0.009063859006637675,-0.025009536888685433
0.0010070954451819635,-0.025009536888685433
-0.006378271152819104,-0.03105210955977722
0.0010070954451819635,-0.03843747615777828
0.010406652933546959,-0.042465857938506144
0.002014190890363927,-0.036423285267414354
-0.0003356984817273213,-0.021988250553139542
-0.0023498893720912484,-0.005874723430228122
0.0006713969634546426,0.0025177386129549098
0.0023498893720912484,0.00788891432059205
0.003692683299000534,0.012252994583047227
-0.0003356984817273213,0.007217517357137408
-0.0030212863355458916,-0.0055390249485008005
0.004699778744182497,-0.01913481345845731
0.003692683299000534,-0.027359426260776684
-0.002014190890363927,-0.033066300450141146
0.0010070954451819635,-0.03843747615777828
-0.0023498893720912484,-0.041794460975051496
-0.005706874189364461,-0.049515526054779886
-0.004699778744182497,-0.05354390783550774
0.004364080262455177,-0.04917982757305257
0.011078049897001601,-0.040451667048142216
0.005706874189364461,-0.03105210955977722
0.0003356984817273213,-0.028030823224231328
-0.0016784924086366065,-0.028366521705958644
0.0023498893720912484,-0.02937361715114061
0.003692683299000534,-0.02668802929732204
0.0006713969634546426,-0.017624170290684367
-0.0016784924086366065,-0.014938582436865796
0.0010070954451819635,-0.023163195239185166
0.007721065079728388,-0.029709315632867935
0.007049668116273747,-0.029709315632867935
0.007385366598001068,-0.024338139925230793
0.007721065079728388,-0.021988250553139542
-0.0003356984817273213,-0.025680933852140077
0.004364080262455177,-0.0315556572823682
0.007721065079728388,-0.03810177767605096
0.011749446860456245,-0.03843747615777828
0.009063859006637675,-0.036423285267414354
-0.0016784924086366065,-0.035416189822232394
-0.005706874189364461,-0.03810177767605096
0.0006713969634546426,-0.041794460975051496
0.006378271152819104,-0.04582284275577936
0.006378271152819104,-0.0528725108720531
0.008392462043183033,-0.057572289616235596
0.007049668116273747,-0.05790798809796292
0.0050354772259098195,-0.05421530479896238
0.010406652933546959,-0.04750133516441596
0.013092240787365528,-0.041794460975051496
0.008392462043183033,-0.04145876249332417
0.007721065079728388,-0.04615854123750667
0.009063859006637675,-0.04666208896009766
0.010406652933546959,-0.043472953383688104
0.0,-0.0379339284351873
-0.0016784924086366065,-0.033066300450141146
0.005706874189364461,-0.03440909437705043
0.0016784924086366065,-0.03910887312123293
-0.0003356984817273213,-0.044815747310597384
0.0010070954451819635,-0.04750133516441596
0.009735255970092317,-0.044815747310597384
0.009735255970092317,-0.04582284275577936
0.009063859006637675,-0.049515526054779886
0.007721065079728388,-0.048508430609597926
0.0023498893720912484,-0.042801556420233464
0.0050354772259098195,-0.03440909437705043
0.009063859006637675,-0.03138780804150454
0.0030212863355458916,-0.03390554665445944
0.0016784924086366065,-0.03776607919432364
0.007721065079728388,-0.03944457160296025
0.007049668116273747,-0.03373769741359579
-0.0010070954451819635,-0.02937361715114061
0.0023498893720912484,-0.028366521705958644
0.009063859006637675,-0.027695124742504008
0.0050354772259098195,-0.030380712596322572
0.0016784924086366065,-0.036423285267414354
-0.0003356984817273213,-0.04582284275577936
0.006378271152819104,-0.04917982757305257
0.006378271152819104,-0.04682993820096131
0.004364080262455177,-0.041794460975051496
-0.0030212863355458916,-0.03843747615777828
-0.0003356984817273213,-0.04213015945677882
0.011078049897001601,-0.049851224536507206
0.010070954451819639,-0.05589379720759898
-0.0010070954451819635,-0.05522240024414436
-0.0016784924086366065,-0.05253681239032577
0.007049668116273747,-0.048508430609597926
0.010406652933546959,-0.043808651865415424
0.004699778744182497,-0.044815747310597384
0.006378271152819104,-0.053208209353780414
0.012420843823910887,-0.06327916380560006
0.005706874189364461,-0.064789806973373
0.0006713969634546426,-0.05992217898832684
0.0010070954451819635,-0.0528725108720531
-0.0003356984817273213,-0.04145876249332417
-0.0023498893720912484,-0.02333104448004883
-0.0023498893720912484,-0.0028534370946822307
-0.0030212863355458916,0.01560997940032044
-0.007721065079728388,0.02400244144350347
0.002014190890363927,0.020645456626230255
0.007721065079728388,0.009903105210955977
0.0013427939269092851,-0.001846341649500267
0.0010070954451819635,-0.011078049897001601
0.0023498893720912484,-0.020645456626230255
0.0030212863355458916,-0.02652018005645838
-0.006378271152819104,-0.02937361715114061
-0.004364080262455177,-0.033066300450141146
0.0016784924086366065,-0.037094682230869
-0.0010070954451819635,-0.03910887312123293
-0.008392462043183033,-0.03105210955977722
-0.004364080262455177,-0.016617074845502403
0.0010070954451819635,0.0011749446860456242
-0.0030212863355458916,0.014938582436865796
-0.0030212863355458916,0.01527428091859312
-0.0023498893720912484,0.008560311284046692
-0.005706874189364461,0.0011749446860456242
0.0023498893720912484,-0.0035248340581368735
0.005706874189364461,-0.007217517357137408
0.003692683299000534,-0.008224612802319372
-0.0003356984817273213,-0.00788891432059205
-0.0016784924086366065,-0.012588693064774548
-0.007049668116273747,-0.022323949034866862
-0.009735255970092317,-0.036423285267414354
-0.0003356984817273213,-0.05522240024414436
0.009063859006637675,-0.07267872129396505
0.009063859006637675,-0.0861066605630579
0.009063859006637675,-0.09214923323414968
0.012420843823910887,-0.0891279468986038
0.011749446860456245,-0.07939269092851148
-0.0003356984817273213,-0.06109712367437248
-0.0050354772259098195,-0.04061951628900587
-0.0003356984817273213,-0.020309758144502935
0.0016784924086366065,-0.002014190890363927
0.010406652933546959,0.008560311284046692
0.015106431677729458,0.010574502174410621
0.011749446860456245,0.008560311284046692
0.013092240787365528,0.008896009765774012
0.01376363775082017,0.007553215838864729
0.015106431677729458,-0.004196231021591517
0.012756542305638208,-0.023834592202639806
0.0157778286411841,-0.04582284275577936
0.021149004348821242,-0.05790798809796292
0.020813305867093918,-0.05992217898832684
0.019806210421911954,-0.053208209353780414
0.020477607385366595,-0.048508430609597926
0.023834592202639806,-0.05253681239032577
0.027862973983367664,-0.05790798809796292
0.02584878309300374,-0.06462195773250935
0.025177386129549097,-0.06999313344014649
0.023163195239185166,-0.07200732433051041
0.021149004348821242,-0.06680399786373693
0.0157778286411841,-0.057236591134508276
0.0016784924086366065,-0.05253681239032577
-0.0016784924086366065,-0.05119401846341649
0.003692683299000534,-0.04917982757305257
-0.0010070954451819635,-0.04531929503318838
-0.0157778286411841,-0.036423285267414354
-0.011078049897001601,-0.029037918669413288
-0.005706874189364461,-0.028702220187685965
-0.010070954451819639,-0.03105210955977722
-0.009735255970092317,-0.037262531471732654
-0.009735255970092317,-0.04011596856641489
-0.011078049897001601,-0.041962310215915156
-0.011078049897001601,-0.043976501106279084
-0.011078049897001601,-0.04615854123750667
-0.01376363775082017,-0.05656519417105363
-0.014099336232547494,-0.06730754558632791
-0.009063859006637675,-0.07402151522087433
-0.009063859006637675,-0.07335011825741969
-0.011078049897001601,-0.07234302281223774
-0.004364080262455177,-0.07335011825741969
0.003356984817273213,-0.07234302281223774
0.005706874189364461,-0.06596475165941862
0.004699778744182497,-0.049515526054779886
0.010070954451819639,-0.025680933852140077
0.019470511940184634,-0.0021820401312275884
0.01376363775082017,0.010574502174410621
0.0016784924086366065,0.008560311284046692
-0.008392462043183033,-0.0028534370946822307
-0.0006713969634546426,-0.020981155107957578
0.003356984817273213,-0.03659113450827802
0.0050354772259098195,-0.043976501106279084
0.009735255970092317,-0.044480048828870064
0.012420843823910887,-0.03927672236209659
0.016784924086366067,-0.03457694361791409
0.012085145342183566,-0.03172350652323186
0.004364080262455177,-0.03440909437705043
0.0023498893720912484,-0.03927672236209659
0.003692683299000534,-0.03743038071259632
0.0016784924086366065,-0.036423285267414354
-0.003356984817273213,-0.04145876249332417
-0.0016784924086366065,-0.04716563668268864
0.004364080262455177,-0.049851224536507206
0.006378271152819104,-0.04582284275577936
0.004364080262455177,-0.043472953383688104
0.0023498893720912484,-0.043808651865415424
0.009063859006637675,-0.048844129091325246
0.009063859006637675,-0.054047455558098714
0.012420843823910887,-0.04682993820096131
0.009735255970092317,-0.03440909437705043
0.003692683299000534,-0.024338139925230793
0.0050354772259098195,-0.024505989166094453
0.008728160524910353,-0.03675898374914168
0.003692683299000534,-0.05555809872587166
0.0023498893720912484,-0.07486076142519264
0.008392462043183033,-0.08073548485542076
0.011078049897001601,-0.07335011825741969
0.014435034714274816,-0.060593575951781484
0.02652018005645838,-0.04313725490196078
0.030212863355458915,-0.023834592202639806
0.009735255970092317,-0.007217517357137408
-0.007385366598001068,0.0015106431677729458
-0.005706874189364461,0.0021820401312275884
0.004364080262455177,-0.0021820401312275884
0.007049668116273747,-0.007217517357137408
0.007721065079728388,-0.009567406729228655
-0.0003356984817273213,-0.009903105210955977
-0.009063859006637675,-0.016617074845502403
0.0010070954451819635,-0.028366521705958644
0.003692683299000534,-0.03440909437705043
0.0016784924086366065,-0.03172350652323186
0.0010070954451819635,-0.028702220187685965
0.003692683299000534,-0.02719157701991302
0.0030212863355458916,-0.024338139925230793
-0.005706874189364461,-0.0213168535896849
-0.003692683299000534,-0.017624170290684367
-0.0003356984817273213,-0.014267185473411156
-0.006378271152819104,-0.01829556725413901
-0.007049668116273747,-0.03105210955977722
0.0003356984817273213,-0.04313725490196078
0.006378271152819104,-0.04582284275577936
0.007721065079728388,-0.041794460975051496
0.007721065079728388,-0.032730601968413826
0.006378271152819104,-0.022995345998321506
0.003692683299000534,-0.017288471808957043
0.005706874189364461,-0.017120622568093383
0.0010070954451819635,-0.021988250553139542
-0.0030212863355458916,-0.022323949034866862
-0.0030212863355458916,-0.024673838406958113
0.0010070954451819635,-0.030045014114595252
-0.0003356984817273213,-0.0379339284351873
-0.014435034714274816,-0.05253681239032577
-0.01376363775082017,-0.07402151522087433
-0.005706874189364461,-0.09651331349660487
-0.009735255970092317,-0.10926985580224306
-0.011078049897001601,-0.10507362478065153
-0.008392462043183033,-0.08342107270923933
0.0016784924086366065,-0.04917982757305257
0.0050354772259098195,-0.020981155107957578
0.007049668116273747,-0.006210421911955443
0.012420843823910887,0.003189135576409552
0.013092240787365528,0.012588693064774548
0.020477607385366595,0.020645456626230255
0.016784924086366067,0.01594567788204776
0.006378271152819104,-0.0008392462043183033
0.003692683299000534,-0.014938582436865796
0.003692683299000534,-0.022995345998321506
0.007721065079728388,-0.021988250553139542
0.010406652933546959,-0.020645456626230255
0.012756542305638208,-0.025680933852140077
0.015106431677729458,-0.03373769741359579
0.006378271152819104,-0.03910887312123293
0.006378271152819104,-0.03675898374914168
0.007385366598001068,-0.03105210955977722
0.009735255970092317,-0.02333104448004883
0.011749446860456245,-0.020309758144502935
0.0157778286411841,-0.02584878309300374
0.010406652933546959,-0.033066300450141146
0.006378271152819104,-0.03843747615777828
0.011749446860456245,-0.04078736552986953
0.009063859006637675,-0.04213015945677882
0.0016784924086366065,-0.03675898374914168
-0.0003356984817273213,-0.027359426260776684
0.0023498893720912484,-0.024338139925230793
0.0050354772259098195,-0.027695124742504008
0.006378271152819104,-0.03474479285877775
0.009063859006637675,-0.03776607919432364
0.007721065079728388,-0.03373769741359579
-0.003356984817273213,-0.024338139925230793
-0.015106431677729458,-0.013931486991683832
-0.012420843823910887,-0.01359578850995651
-0.0030212863355458916,-0.02366674296177615
-0.0003356984817273213,-0.0323949034866865
-0.0003356984817273213,-0.036423285267414354
0.0003356984817273213,-0.036423285267414354
-0.0023498893720912484,-0.03776607919432364
0.0016784924086366065,-0.043640802624551764
-0.0030212863355458916,-0.04716563668268864
-0.0050354772259098195,-0.04548714427405204
0.0010070954451819635,-0.0323949034866865
0.008728160524910353,-0.01896696421759365
0.007721065079728388,-0.01292439154650187
0.0010070954451819635,-0.008560311284046692
0.0023498893720912484,-0.004364080262455177
0.008728160524910353,0.0021820401312275884
0.0003356984817273213,0.004531929503318838
-0.005706874189364461,0.0008392462043183033
-0.0003356984817273213,-0.010238803692683297
0.004364080262455177,-0.02584878309300374
0.003692683299000534,-0.03843747615777828
0.005706874189364461,-0.05119401846341649
0.007721065079728388,-0.05857938506141757
0.006378271152819104,-0.058075837338826576
0.008728160524910353,-0.04783703364614328
0.009063859006637675,-0.03121995880064088
0.009063859006637675,-0.020309758144502935
0.011749446860456245,-0.018631265735866327
0.010406652933546959,-0.02349889372091249
0.011749446860456245,-0.029037918669413288
0.007721065079728388,-0.032730601968413826
0.009063859006637675,-0.03407339589532311
0.017792019531548024,-0.037094682230869
0.014435034714274816,-0.04515144579232471
0.010406652933546959,-0.054551003280689715
0.007721065079728388,-0.06495765621423667
0.011078049897001601,-0.07335011825741969
0.011749446860456245,-0.07603570611123828
0.010406652933546959,-0.07603570611123828
0.0003356984817273213,-0.07570000762951096
-0.008392462043183033,-0.06932173647669183
-0.008392462043183033,-0.05992217898832684
-0.009735255970092317,-0.04682993820096131
-0.007049668116273747,-0.03860532539864195
-0.0016784924086366065,-0.03508049134050507
0.0010070954451819635,-0.03440909437705043
0.0016784924086366065,-0.0387731746395056
-0.0030212863355458916,-0.04313725490196078
-0.0016784924086366065,-0.044647898069733724
0.007049668116273747,-0.041794460975051496
0.003692683299000534,-0.03910887312123293
-0.0010070954451819635,-0.040451667048142216
0.0010070954451819635,-0.043976501106279084
0.0050354772259098195,-0.05471885252155337
0.007049668116273747,-0.06260776684214542
0.011749446860456245,-0.06277561608300908
0.014099336232547494,-0.054551003280689715
0.011749446860456245,-0.04682993820096131
0.014435034714274816,-0.0473334859235523
0.008392462043183033,-0.05253681239032577
0.003692683299000534,-0.05857938506141757
0.009063859006637675,-0.059250782024872196
0.016449225604638743,-0.05253681239032577
0.012420843823910887,-0.043472953383688104
0.0023498893720912484,-0.03910887312123293
0.0023498893720912484,-0.03944457160296025
0.002014190890363927,-0.040451667048142216
-0.0003356984817273213,-0.04078736552986953
-0.0050354772259098195,-0.03944457160296025
-0.0003356984817273213,-0.03675898374914168
0.0023498893720912484,-0.03675898374914168
0.009063859006637675,-0.041794460975051496
0.015106431677729458,-0.041794460975051496
0.008392462043183033,-0.037094682230869
0.0023498893720912484,-0.033401998931868467
0.010406652933546959,-0.0323949034866865
0.0157778286411841,-0.030045014114595252
0.011749446860456245,-0.027695124742504008
0.012756542305638208,-0.030045014114595252
0.006378271152819104,-0.03407339589532311
-0.0030212863355458916,-0.03826962691691462
-0.0010070954451819635,-0.036423285267414354
0.004364080262455177,-0.03373769741359579
0.0050354772259098195,-0.036423285267414354
-0.0030212863355458916,-0.04615854123750667
-0.008392462043183033,-0.05740444037537193
-0.007049668116273747,-0.054551003280689715
0.0010070954451819635,-0.040451667048142216
0.0010070954451819635,-0.021652552071412222
-0.0010070954451819635,-0.0055390249485008005
-0.005706874189364461,0.0030212863355458916
-0.012420843823910887,0.005874723430228122
-0.0030212863355458916,0.0011749446860456242
-0.0010070954451819635,-0.006210421911955443
-0.006378271152819104,-0.01359578850995651
-0.0003356984817273213,-0.020981155107957578
0.006378271152819104,-0.02400244144350347
0.007049668116273747,-0.026352330815594724
-0.0003356984817273213,-0.03105210955977722
-0.0006713969634546426,-0.03407339589532311
0.007721065079728388,-0.03407339589532311
0.006378271152819104,-0.0323949034866865
0.010406652933546959,-0.0323949034866865
0.011749446860456245,-0.03172350652323186
0.008392462043183033,-0.025009536888685433
0.0010070954451819635,-0.022323949034866862
-0.008728160524910353,-0.020477607385366595
-0.013092240787365528,-0.017624170290684367
-0.009063859006637675,-0.01695277332722972
0.006378271152819104,-0.020309758144502935
0.011749446860456245,-0.02584878309300374
0.007721065079728388,-0.028366521705958644
0.007721065079728388,-0.028366521705958644
0.013092240787365528,-0.024505989166094453
0.0157778286411841,-0.017624170290684367
0.007721065079728388,-0.016617074845502403
0.006378271152819104,-0.02668802929732204
0.007385366598001068,-0.04078736552986953
-0.0016784924086366065,-0.04615854123750667
-0.0030212863355458916,-0.04548714427405204
0.002014190890363927,-0.03978027008468757
0.003692683299000534,-0.03373769741359579
0.0023498893720912484,-0.035248340581368734
0.008728160524910353,-0.04313725490196078
0.004364080262455177,-0.053208209353780414
0.004699778744182497,-0.057236591134508276
0.011749446860456245,-0.060761425192645144
0.009735255970092317,-0.06025787747005417
0.006378271152819104,-0.049347676813916226
0.007049668116273747,-0.035919737544823374
0.009735255970092317,-0.029037918669413288
0.0157778286411841,-0.029709315632867935
0.009735255970092317,-0.03373769741359579
0.009735255970092317,-0.035751888303959714
0.013092240787365528,-0.04548714427405204
0.007721065079728388,-0.06462195773250935
0.007385366598001068,-0.0891279468986038
0.003692683299000534,-0.10926985580224306
-0.0010070954451819635,-0.10994125276569772
-0.0003356984817273213,-0.09382772564278628
0.006378271152819104,-0.07217517357137408
0.003692683299000534,-0.05085831998168917
0.0023498893720912484,-0.02887006942854963
0.0016784924086366065,-0.0035248340581368735
-0.0030212863355458916,0.017288471808957043
-0.005706874189364461,0.030716411078049892
-0.006378271152819104,0.032730601968413826
-0.0016784924086366065,0.020309758144502935
-0.0016784924086366065,-0.00016784924086366064
-0.0030212863355458916,-0.021820401312275882
-0.003356984817273213,-0.035416189822232394
-0.004364080262455177,-0.04078736552986953
-0.0030212863355458916,-0.037094682230869
0.0003356984817273213,-0.033066300450141146
-0.006378271152819104,-0.03608758678568704
-0.007721065079728388,-0.04213015945677882
-0.005706874189364461,-0.04615854123750667
-0.0010070954451819635,-0.048508430609597926
-0.0016784924086366065,-0.05253681239032577
-0.005706874189364461,-0.051361867704280154
0.0050354772259098195,-0.044480048828870064
0.006378271152819104,-0.03978027008468757
0.003692683299000534,-0.040451667048142216
0.009063859006637675,-0.044815747310597384
0.015106431677729458,-0.048508430609597926
0.01846341649500267,-0.04716563668268864
0.0003356984817273213,-0.04716563668268864
-0.007049668116273747,-0.050522621499961846
0.009063859006637675,-0.05656519417105363
0.01846341649500267,-0.06126497291523613
0.014099336232547494,-0.056900892652780956
-0.0030212863355458916,-0.049851224536507206
-0.004364080262455177,-0.04716563668268864
0.003692683299000534,-0.05253681239032577
0.007721065079728388,-0.06663614862287326
0.007721065079728388,-0.08157473105973906
0.009063859006637675,-0.09282063019760432
0.022491798275730522,-0.09013504234378575
0.019806210421911954,-0.08073548485542076
0.003356984817273213,-0.06865033951323721
0.0010070954451819635,-0.048844129091325246
0.010070954451819639,-0.024338139925230793
0.009063859006637675,0.0052033264667734795
0.0023498893720912484,0.028702220187685965
0.007721065079728388,0.03608758678568704
0.012420843823910887,0.028030823224231328
0.010406652933546959,0.011581597619592583
0.007721065079728388,-0.003189135576409552
0.003692683299000534,-0.017624170290684367
0.007049668116273747,-0.029709315632867935
0.011749446860456245,-0.03474479285877775
0.011749446860456245,-0.03373769741359579
0.010406652933546959,-0.03373769741359579
0.007721065079728388,-0.04313725490196078
0.012420843823910887,-0.05790798809796292
0.011413748378728923,-0.06898603799496453
0.0050354772259098195,-0.07066453040360113
0.007721065079728388,-0.05958648050659952
0.012756542305638208,-0.043808651865415424
0.01846341649500267,-0.03189135576409552
0.009063859006637675,-0.020981155107957578
0.007385366598001068,-0.008560311284046692
0.006378271152819104,0.006546120393682764
0.0050354772259098195,0.01326009002822919
0.0010070954451819635,0.007553215838864729
-0.004364080262455177,-0.006210421911955443
-0.0003356984817273213,-0.024338139925230793
-0.0016784924086366065,-0.03810177767605096
-0.008392462043183033,-0.04716563668268864
-0.015106431677729458,-0.05085831998168917
-0.011078049897001601,-0.05522240024414436
0.0010070954451819635,-0.05824368657969024
-0.0003356984817273213,-0.05522240024414436
-0.005706874189364461,-0.048844129091325246
-0.0016784924086366065,-0.03440909437705043
0.0010070954451819635,-0.017624170290684367
0.004364080262455177,-0.004196231021591517
-0.0030212863355458916,0.0008392462043183033
0.0016784924086366065,-0.0035248340581368735
0.006378271152819104,-0.012252994583047227
0.0023498893720912484,-0.03105210955977722
-0.0010070954451819635,-0.04783703364614328
-0.003692683299000534,-0.05387960631723506
-0.0050354772259098195,-0.051865415426871134
-0.0010070954451819635,-0.049347676813916226
0.0006713969634546426,-0.05119401846341649
-0.0030212863355458916,-0.052201113908598454
-0.0030212863355458916,-0.050522621499961846
0.0050354772259098195,-0.048508430609597926
-0.0003356984817273213,-0.044480048828870064
-0.005706874189364461,-0.04716563668268864
-0.0003356984817273213,-0.05824368657969024
0.003692683299000534,-0.061936369878690785
0.0023498893720912484,-0.05958648050659952
0.0003356984817273213,-0.05622949568932631
0.0050354772259098195,-0.05589379720759898
0.012756542305638208,-0.05790798809796292
0.009063859006637675,-0.05874723430228122
0.006378271152819104,-0.058915083543144876
0.011078049897001601,-0.05354390783550774
0.0157778286411841,-0.042465857938506144
0.012420843823910887,-0.030045014114595252
0.009063859006637675,-0.01846341649500267
0.010070954451819639,-0.009567406729228655
0.011749446860456245,-0.006210421911955443
0.017120622568093383,-0.009567406729228655
0.009063859006637675,-0.011581597619592583
-0.0003356984817273213,-0.01292439154650187
0.007049668116273747,-0.01326009002822919
0.015106431677729458,-0.014938582436865796
0.021149004348821242,-0.019638361181048294
0.016784924086366067,-0.029037918669413288
0.014099336232547494,-0.042465857938506144
0.002014190890363927,-0.0473334859235523
-0.006378271152819104,-0.04129091325246051
-0.005706874189364461,-0.03172350652323186
-0.005706874189364461,-0.022995345998321506
-0.0016784924086366065,-0.019302662699320974
0.007721065079728388,-0.021652552071412222
0.012756542305638208,-0.028366521705958644
0.0050354772259098195,-0.03508049134050507
-0.0013427939269092851,-0.037094682230869
0.003356984817273213,-0.043472953383688104
-0.002014190890363927,-0.0528725108720531
-0.005706874189364461,-0.05555809872587166
-0.006042572671091783,-0.04917982757305257
-0.005706874189364461,-0.036423285267414354
0.0010070954451819635,-0.030380712596322572
-0.003692683299000534,-0.03390554665445944
-0.0023498893720912484,-0.042465857938506144
0.006378271152819104,-0.050186923018234526
0.007721065079728388,-0.04615854123750667
0.009063859006637675,-0.036423285267414354
0.011749446860456245,-0.027023727779049357
0.011413748378728923,-0.01896696421759365
0.007721065079728388,-0.012252994583047227
-0.0006713969634546426,-0.012588693064774548
-0.0050354772259098195,-0.020309758144502935
-0.0030212863355458916,-0.024338139925230793
0.010406652933546959,-0.022995345998321506
0.006378271152819104,-0.017624170290684367
0.0010070954451819635,-0.012252994583047227
0.0023498893720912484,-0.01527428091859312
0.0023498893720912484,-0.030045014114595252
0.006378271152819104,-0.048508430609597926
0.0050354772259098195,-0.06092927443350881
0.009063859006637675,-0.06462195773250935
0.011413748378728923,-0.05992217898832684
0.0023498893720912484,-0.050522621499961846
0.0016784924086366065,-0.04011596856641489
0.011413748378728923,-0.027695124742504008
0.01846341649500267,-0.012252994583047227
0.01376363775082017,0.00016784924086366064
0.003692683299000534,0.0025177386129549098
-0.005706874189364461,-0.007553215838864729
-0.005706874189364461,-0.021652552071412222
0.009735255970092317,-0.029709315632867935
0.014435034714274816,-0.03054856183718624
0.007721065079728388,-0.026352330815594724
0.007721065079728388,-0.025345235370412753
0.01376363775082017,-0.0323949034866865
0.017120622568093383,-0.03978027008468757
0.010406652933546959,-0.044480048828870064
0.008392462043183033,-0.04414435034714275
0.010406652933546959,-0.04515144579232471
0.009063859006637675,-0.04078736552986953
0.007721065079728388,-0.03508049134050507
0.006378271152819104,-0.036423285267414354
0.0050354772259098195,-0.040451667048142216
0.005706874189364461,-0.04515144579232471
0.007049668116273747,-0.04582284275577936
0.0050354772259098195,-0.04515144579232471
0.006042572671091783,-0.041123064011596856
0.009063859006637675,-0.035416189822232394
0.010406652933546959,-0.03910887312123293
0.0050354772259098195,-0.049851224536507206
0.003692683299000534,-0.059250782024872196
0.006042572671091783,-0.06126497291523613
0.005706874189364461,-0.059250782024872196
-0.003692683299000534,-0.05169756618600748
0.002014190890363927,-0.03743038071259632
0.010406652933546959,-0.022995345998321506
0.007721065079728388,-0.014938582436865796
0.003356984817273213,-0.01527428091859312
0.007049668116273747,-0.023163195239185166
0.010406652933546959,-0.033066300450141146
0.003692683299000534,-0.04213015945677882
-0.009063859006637675,-0.04917982757305257
-0.011078049897001601,-0.04750133516441596
-0.011413748378728923,-0.041962310215915156
-0.003692683299000534,-0.03440909437705043
-0.005706874189364461,-0.0323949034866865
-0.009063859006637675,-0.03373769741359579
-0.004364080262455177,-0.03457694361791409
0.0010070954451819635,-0.03508049134050507
0.0010070954451819635,-0.03508049134050507
-0.009063859006637675,-0.03407339589532311
-0.007385366598001068,-0.029037918669413288
0.0003356984817273213,-0.024673838406958113
-0.0016784924086366065,-0.027359426260776684
-0.003692683299000534,-0.03440909437705043
-0.0010070954451819635,-0.043808651865415424
0.007721065079728388,-0.050522621499961846
0.009735255970092317,-0.050186923018234526
0.005706874189364461,-0.041794460975051496
-0.0030212863355458916,-0.03474479285877775
-0.003692683299000534,-0.03810177767605096
0.004364080262455177,-0.042801556420233464
0.004364080262455177,-0.04783703364614328
-0.004364080262455177,-0.050522621499961846
-0.003692683299000534,-0.05354390783550774
0.004364080262455177,-0.05522240024414436
0.006713969634546426,-0.05253681239032577
-0.0023498893720912484,-0.05119401846341649
-0.005706874189364461,-0.050186923018234526
-0.0030212863355458916,-0.05085831998168917
-0.004364080262455177,-0.05656519417105363
-0.003692683299000534,-0.05656519417105363
0.0016784924086366065,-0.051865415426871134
0.003692683299000534,-0.043808651865415424
0.007721065079728388,-0.0323949034866865
0.0050354772259098195,-0.020309758144502935
-0.0030212863355458916,-0.008224612802319372
-0.0030212863355458916,-0.003692683299000534
0.010070954451819639,-0.007553215838864729
0.010406652933546959,-0.014267185473411156
0.006378271152819104,-0.024338139925230793
0.009063859006637675,-0.03172350652323186
0.01376363775082017,-0.033066300450141146
0.0157778286411841,-0.02853437094682231
0.008728160524910353,-0.0260166323338674
0.010406652933546959,-0.028366521705958644
0.0157778286411841,-0.03105210955977722
0.015106431677729458,-0.033066300450141146
0.011749446860456245,-0.0323949034866865
0.010070954451819639,-0.02937361715114061
0.008728160524910353,-0.028366521705958644
0.008392462043183033,-0.03172350652323186
0.009735255970092317,-0.03944457160296025
0.0030212863355458916,-0.04716563668268864
0.0023498893720912484,-0.05253681239032577
0.003692683299000534,-0.0520332646677348
0.0016784924086366065,-0.044480048828870064
-0.002014190890363927,-0.03373769741359579
0.0023498893720912484,-0.024338139925230793
0.008728160524910353,-0.020309758144502935
0.013092240787365528,-0.020309758144502935
0.012756542305638208,-0.024338139925230793
0.015106431677729458,-0.025680933852140077
0.019470511940184634,-0.020309758144502935
0.020477607385366595,-0.01695277332722972
0.014435034714274816,-0.01846341649500267
0.009063859006637675,-0.017288471808957043
0.01376363775082017,-0.011581597619592583
0.0157778286411841,-0.0035248340581368735
0.009399557488364994,-0.00016784924086366064
-0.005706874189364461,-0.0021820401312275884
-0.013092240787365528,-0.009567406729228655
-0.0016784924086366065,-0.021988250553139542
0.009063859006637675,-0.02937361715114061
0.0050354772259098195,-0.03138780804150454
-0.0030212863355458916,-0.027695124742504008
-0.014435034714274816,-0.023834592202639806
-0.019470511940184634,-0.02366674296177615
-0.016449225604638743,-0.02719157701991302
-0.0013427939269092851,-0.03508049134050507
0.011749446860456245,-0.03810177767605096
0.011078049897001601,-0.03810177767605096
0.007049668116273747,-0.0379339284351873
0.003692683299000534,-0.03776607919432364
0.004364080262455177,-0.03776607919432364
0.006378271152819104,-0.03978027008468757
0.009063859006637675,-0.04515144579232471
0.0050354772259098195,-0.048508430609597926
-0.0003356984817273213,-0.0481727321278706
0.0003356984817273213,-0.04414435034714275
-0.003692683299000534,-0.03944457160296025
-0.008392462043183033,-0.03810177767605096
-0.007385366598001068,-0.04145876249332417
-0.004364080262455177,-0.049347676813916226
-0.0023498893720912484,-0.05253681239032577
-0.011749446860456245,-0.04766918440527961
-0.010406652933546959,-0.04682993820096131
-0.0050354772259098195,-0.05522240024414436
-0.009735255970092317,-0.06260776684214542
-0.011749446860456245,-0.06411841000991834
-0.007049668116273747,-0.05824368657969024
0.0010070954451819635,-0.051865415426871134
0.008392462043183033,-0.050522621499961846
0.0157778286411841,-0.05958648050659952
0.013092240787365528,-0.07150377660791943
0.006378271152819104,-0.07335011825741969
0.011749446860456245,-0.06764324406805522
0.014435034714274816,-0.057236591134508276
0.01376363775082017,-0.04783703364614328
0.014435034714274816,-0.043472953383688104
0.016784924086366067,-0.042465857938506144
0.015106431677729458,-0.041794460975051496
0.010406652933546959,-0.036423285267414354
0.013092240787365528,-0.03205920500495917
0.0157778286411841,-0.03054856183718624
0.009063859006637675,-0.030045014114595252
0.003692683299000534,-0.03373769741359579
0.007385366598001068,-0.03776607919432364
0.011078049897001601,-0.04213015945677882
0.015106431677729458,-0.043808651865415424
0.01846341649500267,-0.041794460975051496
0.014770733196002136,-0.037262531471732654
0.009735255970092317,-0.033234149691004806
0.009063859006637675,-0.035751888303959714
0.0023498893720912484,-0.043808651865415424
-0.006378271152819104,-0.05119401846341649
-0.004364080262455177,-0.050522621499961846
0.0023498893720912484,-0.040451667048142216
0.010070954451819639,-0.03105210955977722
0.0050354772259098195,-0.028366521705958644
0.004699778744182497,-0.028366521705958644
0.011413748378728923,-0.027359426260776684
0.0030212863355458916,-0.024338139925230793
-0.004364080262455177,-0.022156099794003202
-0.005706874189364461,-0.026352330815594724
-0.0030212863355458916,-0.03508049134050507
0.003692683299000534,-0.044815747310597384
0.002014190890363927,-0.05119401846341649
-0.003692683299000534,-0.05354390783550774
-0.004364080262455177,-0.050690470740825506
-0.005706874189364461,-0.04783703364614328
-0.011078049897001601,-0.048508430609597926
-0.013092240787365528,-0.04800488288700694
-0.004364080262455177,-0.04615854123750667
0.0050354772259098195,-0.040451667048142216
0.007721065079728388,-0.035751888303959714
0.0050354772259098195,-0.028366521705958644
0.012756542305638208,-0.016617074845502403
0.02584878309300374,-0.010910200656137941
0.02652018005645838,-0.014267185473411156
0.023163195239185166,-0.025009536888685433
0.019806210421911954,-0.03373769741359579
0.017120622568093383,-0.035248340581368734
0.007721065079728388,-0.029709315632867935
0.007385366598001068,-0.021820401312275882
0.004364080262455177,-0.022995345998321506
0.0010070954451819635,-0.03121995880064088
0.010406652933546959,-0.03776607919432364
0.008392462043183033,-0.0387731746395056
0.0023498893720912484,-0.03608758678568704
0.003692683299000534,-0.03608758678568704
0.009063859006637675,-0.03843747615777828
0.006378271152819104,-0.037094682230869
-0.0023498893720912484,-0.032730601968413826
-0.007049668116273747,-0.021652552071412222
-0.0016784924086366065,-0.01326009002822919
-0.004364080262455177,-0.015106431677729458
-0.0030212863355458916,-0.0213168535896849
-0.003356984817273213,-0.027023727779049357
0.0006713969634546426,-0.028030823224231328
-0.0030212863355458916,-0.026352330815594724
-0.008392462043183033,-0.02366674296177615
-0.009735255970092317,-0.027695124742504008
-0.011413748378728923,-0.03927672236209659
-0.0016784924086366065,-0.051361867704280154
0.0016784924086366065,-0.06126497291523613
-0.007049668116273747,-0.06630045014114595
-0.007049668116273747,-0.06596475165941862
-0.0010070954451819635,-0.056900892652780956
-0.0003356984817273213,-0.044815747310597384
-0.0023498893720912484,-0.03407339589532311
-0.005706874189364461,-0.025680933852140077
-0.0030212863355458916,-0.019638361181048294
-0.005706874189364461,-0.014267185473411156
-0.0023498893720912484,-0.008896009765774012
0.0,-0.006210421911955443
0.0,-0.014435034714274816
0.0,-0.03944457160296025
0.0,-0.06865033951323721
0.0,-0.08946364538033112
0.0,-0.09785610742351414
0.0,-0.09114213778896772
0.0,-0.0775463492790112
0.0,-0.06327916380560006
0.0,-0.04515144579232471
0.0,-0.022995345998321506
0.0,-0.0008392462043183033
0.0,0.009567406729228655
0.0,0.012588693064774548
0.0,0.01326009002822919
0.0,0.011917296101319903
0.0,0.01594567788204776
0.007721065079728388,0.02400244144350347
0.011078049897001601,0.033401998931868467
0.014435034714274816,0.03474479285877775
0.015106431677729458,0.024673838406958113
0.009735255970092317,0.006546120393682764
-0.0003356984817273213,-0.0157778286411841
0.007721065079728388,-0.03105210955977722
0.005706874189364461,-0.03440909437705043
-0.005706874189364461,-0.030045014114595252
-0.006378271152819104,-0.027359426260776684
-0.0023498893720912484,-0.030380712596322572
0.0010070954451819635,-0.036423285267414354
-0.003692683299000534,-0.043976501106279084
-0.0003356984817273213,-0.04716563668268864
0.006378271152819104,-0.04313725490196078
0.003692683299000534,-0.035919737544823374
-0.005706874189364461,-0.029709315632867935
-0.01812771801327535,-0.028030823224231328
-0.017792019531548024,-0.02937361715114061
-0.008392462043183033,-0.03256275272755016
-0.006042572671091783,-0.03440909437705043
-0.007721065079728388,-0.03407339589532311
-0.008392462043183033,-0.03810177767605096
-0.0006713969634546426,-0.04716563668268864
-0.004364080262455177,-0.048508430609597926
-0.008728160524910353,-0.041794460975051496
-0.005706874189364461,-0.03373769741359579
0.0010070954451819635,-0.0323949034866865
0.0050354772259098195,-0.037094682230869
-0.0003356984817273213,-0.042465857938506144
-0.003692683299000534,-0.04750133516441596
0.0006713969634546426,-0.0473334859235523
0.0010070954451819635,-0.044983596551461044
-0.0016784924086366065,-0.0426337071793698
-0.002014190890363927,-0.043640802624551764
0.0023498893720912484,-0.04649423971923399
0.003692683299000534,-0.050019073777370866
0.007049668116273747,-0.058915083543144876
0.0023498893720912484,-0.06462195773250935
-0.0003356984817273213,-0.064789806973373
0.009735255970092317,-0.059250782024872196
0.010406652933546959,-0.05421530479896238
0.010406652933546959,-0.056900892652780956
0.01913481345845731,-0.06462195773250935
0.023163195239185166,-0.07637140459296558
0.021149004348821242,-0.08224612802319371
0.014099336232547494,-0.07905699244678416
0.014435034714274816,-0.07167162584878309
0.0157778286411841,-0.059250782024872196
0.014435034714274816,-0.048508430609597926
0.011749446860456245,-0.044480048828870064
0.009063859006637675,-0.04515144579232471
0.014099336232547494,-0.04666208896009766
0.014435034714274816,-0.04582284275577936
0.011749446860456245,-0.04750133516441596
0.007721065079728388,-0.04917982757305257
0.003356984817273213,-0.044815747310597384
0.009063859006637675,-0.041794460975051496
0.010406652933546959,-0.03978027008468757
-0.004364080262455177,-0.03810177767605096
-0.007049668116273747,-0.03675898374914168
-0.0003356984817273213,-0.03910887312123293
-0.0006713969634546426,-0.044480048828870064
-0.012085145342183566,-0.04716563668268864
-0.007385366598001068,-0.04917982757305257
0.0030212863355458916,-0.0473334859235523
-0.004364080262455177,-0.04213015945677882
-0.011078049897001601,-0.03843747615777828
-0.0050354772259098195,-0.040451667048142216
0.0050354772259098195,-0.044480048828870064
0.006378271152819104,-0.043808651865415424
0.009735255970092317,-0.04011596856641489
0.007049668116273747,-0.03776607919432364
0.0050354772259098195,-0.04011596856641489
0.011749446860456245,-0.044480048828870064
0.010406652933546959,-0.04716563668268864
0.007049668116273747,-0.044480048828870064
0.007721065079728388,-0.03373769741359579
0.011749446860456245,-0.02265964751659419
0.009735255970092317,-0.010910200656137941
0.005706874189364461,0.0052033264667734795
0.012420843823910887,0.01594567788204776
0.017120622568093383,0.01527428091859312
0.009063859006637675,0.007217517357137408
0.009063859006637675,-0.0021820401312275884
0.006378271152819104,-0.0055390249485008005
0.003692683299000534,-0.010574502174410621
0.007385366598001068,-0.017120622568093383
0.013092240787365528,-0.022995345998321506
0.0023498893720912484,-0.028366521705958644
-0.0023498893720912484,-0.027359426260776684
0.007721065079728388,-0.024338139925230793
0.009735255970092317,-0.02400244144350347
0.003692683299000534,-0.027359426260776684
0.0023498893720912484,-0.032730601968413826
0.006042572671091783,-0.03138780804150454
0.0030212863355458916,-0.022995345998321506
-0.005706874189364461,-0.009567406729228655
-0.005706874189364461,-0.0005035477225909818
0.0010070954451819635,-0.007049668116273747
-0.005706874189364461,-0.021820401312275882
-0.017792019531548024,-0.035751888303959714
-0.022491798275730522,-0.041794460975051496
-0.017792019531548024,-0.04313725490196078
-0.012756542305638208,-0.03776607919432364
-0.003692683299000534,-0.029709315632867935
0.0023498893720912484,-0.029037918669413288
0.0016784924086366065,-0.041794460975051496
0.009063859006637675,-0.0639505607690547
0.013092240787365528,-0.08375677119096665
0.010406652933546959,-0.09097428854810408
0.010406652933546959,-0.0775463492790112
0.011749446860456245,-0.050690470740825506
0.014099336232547494,-0.021988250553139542
0.008728160524910353,0.004867627985046159
0.009735255970092317,0.030045014114595252
-0.0003356984817273213,0.049515526054779886
-0.016449225604638743,0.05824368657969024
-0.017792019531548024,0.0481727321278706
-0.01376363775082017,0.021988250553139542
-0.0030212863355458916,-0.011917296101319903
0.004364080262455177,-0.04515144579232471
0.007721065079728388,-0.06529335469596398
0.0050354772259098195,-0.07570000762951096
0.0030212863355458916,-0.08224612802319371
0.010406652933546959,-0.08711375600823987
0.013092240787365528,-0.08744945448996719
0.013092240787365528,-0.07536430914778362
0.015106431677729458,-0.052201113908598454
0.019806210421911954,-0.02333104448004883
0.012756542305638208,-0.004196231021591517
-0.008392462043183033,-0.0052033264667734795
-0.0010070954451819635,-0.01829556725413901
0.013092240787365528,-0.03256275272755016
0.007721065079728388,-0.03776607919432364
0.003692683299000534,-0.03407339589532311
0.0050354772259098195,-0.025177386129549097
0.011078049897001601,-0.014938582436865796
0.015106431677729458,-0.01292439154650187
0.017120622568093383,-0.01326009002822919
0.014435034714274816,-0.01829556725413901
0.009063859006637675,-0.024673838406958113
0.015442130159456776,-0.028030823224231328
0.010406652933546959,-0.025680933852140077
0.003692683299000534,-0.019638361181048294
0.003692683299000534,-0.019638361181048294
0.007721065079728388,-0.023834592202639806
0.010406652933546959,-0.029037918669413288
0.006378271152819104,-0.03407339589532311
0.007721065079728388,-0.03910887312123293
0.013092240787365528,-0.049851224536507206
0.014435034714274816,-0.06730754558632791
0.012420843823910887,-0.07704280155642022
0.007721065079728388,-0.07100022888532845
0.009735255970092317,-0.051529716945143814
0.008392462043183033,-0.03189135576409552
0.005706874189364461,-0.019302662699320974
0.0050354772259098195,-0.014267185473411156
-0.0003356984817273213,-0.01628137636377508
0.0023498893720912484,-0.020645456626230255
0.003692683299000534,-0.022323949034866862
0.0010070954451819635,-0.020477607385366595
0.0023498893720912484,-0.024673838406958113
-0.0003356984817273213,-0.03457694361791409
-0.0006713969634546426,-0.04313725490196078
-0.006042572671091783,-0.048508430609597926
-0.004364080262455177,-0.0481727321278706
-0.0003356984817273213,-0.04682993820096131
-0.006042572671091783,-0.043472953383688104
-0.007721065079728388,-0.041794460975051496
-0.004699778744182497,-0.043808651865415424
0.0016784924086366065,-0.04800488288700694
-0.0016784924086366065,-0.058411535820553896
-0.0003356984817273213,-0.06562905317769131
0.003356984817273213,-0.06462195773250935
0.0023498893720912484,-0.05790798809796292
0.009063859006637675,-0.04800488288700694
0.006378271152819104,-0.042465857938506144
-0.0016784924086366065,-0.043305104142824444
0.003692683299000534,-0.04783703364614328
0.010406652933546959,-0.04917982757305257
0.009735255970092317,-0.04515144579232471
0.0050354772259098195,-0.04615854123750667
0.007385366598001068,-0.05387960631723506
0.008392462043183033,-0.056900892652780956
-0.0003356984817273213,-0.05354390783550774
-0.0016784924086366065,-0.04615854123750667
-0.0030212863355458916,-0.04414435034714275
-0.0016784924086366065,-0.04750133516441596
-0.0003356984817273213,-0.051865415426871134
0.0023498893720912484,-0.059250782024872196
-0.0016784924086366065,-0.0639505607690547
-0.008392462043183033,-0.06462195773250935
0.0003356984817273213,-0.061936369878690785
0.0050354772259098195,-0.059250782024872196
-0.0030212863355458916,-0.05857938506141757
-0.012420843823910887,-0.060090028229190504
-0.008392462043183033,-0.0639505607690547
-0.0003356984817273213,-0.06126497291523613
0.0023498893720912484,-0.050186923018234526
0.011078049897001601,-0.035248340581368734
0.019806210421911954,-0.023163195239185166
0.01846341649500267,-0.017624170290684367
0.003692683299000534,-0.021988250553139542
-0.0010070954451819635,-0.03373769741359579
0.007049668116273747,-0.04011596856641489
0.0050354772259098195,-0.03944457160296025
0.0016784924086366065,-0.03457694361791409
0.0016784924086366065,-0.02937361715114061
-0.005706874189364461,-0.029205767910276948
-0.0030212863355458916,-0.03205920500495917
-0.007049668116273747,-0.035416189822232394
-0.011078049897001601,-0.03608758678568704
-0.007049668116273747,-0.035248340581368734
-0.0003356984817273213,-0.04313725490196078
-0.0003356984817273213,-0.05270466163118945
-0.009063859006637675,-0.05354390783550774
-0.004699778744182497,-0.04917982757305257
0.006378271152819104,-0.04313725490196078
0.010406652933546959,-0.03994811932555123
0.013092240787365528,-0.041123064011596856
0.0157778286411841,-0.04666208896009766
0.019470511940184634,-0.050522621499961846
0.020477607385366595,-0.04599069199664301
0.021149004348821242,-0.03910887312123293
0.012756542305638208,-0.03105210955977722
0.012756542305638208,-0.02333104448004883
0.023163195239185166,-0.01913481345845731
0.022491798275730522,-0.022323949034866862
0.0157778286411841,-0.03508049134050507
0.014099336232547494,-0.05085831998168917
0.016784924086366067,-0.06865033951323721
0.0157778286411841,-0.08476386663614863
0.007721065079728388,-0.09617761501487754
0.007721065079728388,-0.10389868009460593
0.009063859006637675,-0.10356298161287861
0.004364080262455177,-0.08946364538033112
-0.0006713969634546426,-0.05790798809796292
-0.0030212863355458916,-0.017959868772411687
-0.0010070954451819635,0.01560997940032044
0.0010070954451819635,0.03608758678568704
0.0016784924086366065,0.03810177767605096
0.0003356984817273213,0.025680933852140077
0.0016784924086366065,0.008896009765774012
0.009063859006637675,-0.006881818875410085
0.012420843823910887,-0.025680933852140077
0.012420843823910887,-0.044480048828870064
0.008392462043183033,-0.05790798809796292
0.009735255970092317,-0.05790798809796292
0.014435034714274816,-0.044480048828870064
0.0050354772259098195,-0.021988250553139542
0.0023498893720912484,-0.0008392462043183033
0.007049668116273747,0.01292439154650187
0.006378271152819104,0.019638361181048294
0.0010070954451819635,0.02265964751659419
-0.0016784924086366065,0.02265964751659419
-0.0006713969634546426,0.017288471808957043
-0.003692683299000534,0.010238803692683297
-0.0030212863355458916,0.004531929503318838
-0.005706874189364461,-0.0021820401312275884
-0.008392462043183033,-0.011078049897001601
-0.0016784924086366065,-0.027023727779049357
-0.004364080262455177,-0.04078736552986953
-0.012420843823910887,-0.04716563668268864
-0.008728160524910353,-0.04213015945677882
-0.003356984817273213,-0.036423285267414354
-0.005706874189364461,-0.03910887312123293
-0.013092240787365528,-0.04129091325246051
-0.010406652933546959,-0.03776607919432364
-0.0010070954451819635,-0.025680933852140077
-0.0003356984817273213,-0.011581597619592583
0.0010070954451819635,-0.0021820401312275884
0.0010070954451819635,0.0025177386129549098
0.003692683299000534,-0.00016784924086366064
0.011749446860456245,-0.012252994583047227
0.014435034714274816,-0.025680933852140077
0.011749446860456245,-0.035751888303959714
0.004364080262455177,-0.0387731746395056
0.011749446860456245,-0.04078736552986953
0.008728160524910353,-0.04649423971923399
-0.0016784924086366065,-0.050522621499961846
-0.0003356984817273213,-0.05119401846341649
0.003692683299000534,-0.04716563668268864
0.0050354772259098195,-0.044815747310597384
-0.0030212863355458916,-0.04649423971923399
0.0010070954451819635,-0.048508430609597926
0.009735255970092317,-0.051529716945143814
0.013092240787365528,-0.057236591134508276
0.015442130159456776,-0.060761425192645144
0.0157778286411841,-0.05555809872587166
0.0050354772259098195,-0.04783703364614328
-0.003692683299000534,-0.043472953383688104
0.0016784924086366065,-0.04313725490196078
0.006378271152819104,-0.04649423971923399
0.005706874189364461,-0.044480048828870064
0.007721065079728388,-0.035751888303959714
0.011413748378728923,-0.025009536888685433
0.008392462043183033,-0.021988250553139542
0.014435034714274816,-0.030380712596322572
0.017120622568093383,-0.04145876249332417
0.013092240787365528,-0.05421530479896238
0.0006713969634546426,-0.064789806973373
-0.0030212863355458916,-0.07536430914778362
0.0050354772259098195,-0.08409246967269397
0.005706874189364461,-0.0891279468986038
0.0003356984817273213,-0.09147783627069504
-0.0003356984817273213,-0.08744945448996719
-0.0023498893720912484,-0.07536430914778362
-0.0016784924086366065,-0.060593575951781484
0.0023498893720912484,-0.04129091325246051
0.007049668116273747,-0.02333104448004883
0.009063859006637675,-0.010238803692683297
0.014435034714274816,-0.0028534370946822307
0.016784924086366067,-0.0035248340581368735
0.012420843823910887,-0.007553215838864729
0.013092240787365528,-0.014267185473411156
0.015106431677729458,-0.02584878309300374
0.011413748378728923,-0.041794460975051496
0.006042572671091783,-0.06025787747005417
0.007049668116273747,-0.06999313344014649
0.010070954451819639,-0.06999313344014649
0.007721065079728388,-0.06260776684214542
0.0050354772259098195,-0.056900892652780956
0.0010070954451819635,-0.05656519417105363
0.0050354772259098195,-0.05958648050659952
0.004364080262455177,-0.06596475165941862
0.0016784924086366065,-0.06663614862287326
-0.0030212863355458916,-0.06092927443350881
-0.0016784924086366065,-0.0528725108720531
0.004364080262455177,-0.050019073777370866
0.0050354772259098195,-0.050186923018234526
-0.0003356984817273213,-0.048508430609597926
0.003692683299000534,-0.0481727321278706
0.009063859006637675,-0.049347676813916226
-0.0010070954451819635,-0.050522621499961846
-0.013092240787365528,-0.04666208896009766
-0.007385366598001068,-0.03944457160296025
-0.0016784924086366065,-0.03659113450827802
-0.003692683299000534,-0.03910887312123293
-0.007049668116273747,-0.0473334859235523
-0.004364080262455177,-0.05740444037537193
0.0006713969634546426,-0.061936369878690785
-0.0016784924086366065,-0.06730754558632791
0.006378271152819104,-0.0788891432059205
0.007721065079728388,-0.0861066605630579
0.0030212863355458916,-0.08543526359960325
-0.0030212863355458916,-0.07536430914778362
-0.016449225604638743,-0.060761425192645144
-0.015106431677729458,-0.03994811932555123
-0.007721065079728388,-0.019638361181048294
-0.005706874189364461,-0.007553215838864729
-0.007385366598001068,0.0035248340581368735
-0.011078049897001601,0.011078049897001601
-0.009063859006637675,0.0157778286411841
-0.003692683299000534,0.014435034714274816
-0.0030212863355458916,0.006378271152819104
-0.0050354772259098195,-0.006546120393682764
-0.008392462043183033,-0.022995345998321506
0.0006713969634546426,-0.0323949034866865
0.004364080262455177,-0.03373769741359579
0.007721065079728388,-0.030380712596322572
0.005706874189364461,-0.02668802929732204
0.006378271152819104,-0.025009536888685433
0.010070954451819639,-0.0260166323338674
0.008392462043183033,-0.03105210955977722
0.004364080262455177,-0.033066300450141146
0.007049668116273747,-0.03172350652323186
0.012420843823910887,-0.028702220187685965
0.017120622568093383,-0.022323949034866862
0.01376363775082017,-0.01829556725413901
0.019806210421911954,-0.0213168535896849
0.029205767910276948,-0.03138780804150454
0.019806210421911954,-0.03944457160296025
0.007721065079728388,-0.03843747615777828
0.007721065079728388,-0.03440909437705043
0.014099336232547494,-0.03054856183718624
0.009063859006637675,-0.024505989166094453
0.007049668116273747,-0.01896696421759365
0.0050354772259098195,-0.010238803692683297
0.006042572671091783,-0.0028534370946822307
0.010406652933546959,-0.0015106431677729458
0.011749446860456245,-0.009063859006637675
0.005706874189364461,-0.019638361181048294
0.004699778744182497,-0.022323949034866862
0.011078049897001601,-0.019974059662775615
0.012420843823910887,-0.01560997940032044
0.003692683299000534,-0.014938582436865796
0.005706874189364461,-0.01896696421759365
0.007721065079728388,-0.022995345998321506
0.0010070954451819635,-0.027695124742504008
-0.0023498893720912484,-0.029709315632867935
-0.003692683299000534,-0.03105210955977722
-0.004364080262455177,-0.027862973983367664
-0.004364080262455177,-0.020309758144502935
0.0010070954451819635,-0.017624170290684367
0.0003356984817273213,-0.021652552071412222
0.0023498893720912484,-0.03205920500495917
0.0030212863355458916,-0.04129091325246051
0.0010070954451819635,-0.04750133516441596
-0.0016784924086366065,-0.04682993820096131
0.0016784924086366065,-0.0379339284351873
0.003692683299000534,-0.03054856183718624
0.0023498893720912484,-0.03105210955977722
-0.0030212863355458916,-0.03222705424582283
-0.0003356984817273213,-0.028030823224231328
0.003692683299000534,-0.020309758144502935
0.0030212863355458916,-0.020309758144502935
0.0050354772259098195,-0.029709315632867935
0.0030212863355458916,-0.03776607919432364
0.0050354772259098195,-0.043472953383688104
0.009735255970092317,-0.044480048828870064
0.011749446860456245,-0.042465857938506144
0.006378271152819104,-0.04313725490196078
0.0010070954451819635,-0.044480048828870064
0.006378271152819104,-0.040451667048142216
0.0023498893720912484,-0.027359426260776684
-0.003692683299000534,-0.014267185473411156
0.0010070954451819635,-0.004531929503318838
0.007721065079728388,-0.004867627985046159
0.008392462043183033,-0.01359578850995651
-0.0003356984817273213,-0.02333104448004883
0.0010070954451819635,-0.030380712596322572
0.007721065079728388,-0.03373769741359579
0.006378271152819104,-0.03944457160296025
0.007049668116273747,-0.043472953383688104
0.006378271152819104,-0.043976501106279084
0.011078049897001601,-0.044480048828870064
0.011078049897001601,-0.04582284275577936
0.012420843823910887,-0.04800488288700694
0.010406652933546959,-0.04649423971923399
0.0050354772259098195,-0.043976501106279084
0.013092240787365528,-0.040451667048142216
0.011749446860456245,-0.03860532539864195
0.0050354772259098195,-0.04716563668268864
0.007721065079728388,-0.060593575951781484
0.013092240787365528,-0.0703288319218738
0.015442130159456776,-0.07402151522087433
0.003692683299000534,-0.07402151522087433
-0.0010070954451819635,-0.07603570611123828
0.004364080262455177,-0.0788891432059205
0.0016784924086366065,-0.07267872129396505
-0.006378271152819104,-0.058075837338826576
-0.011078049897001601,-0.03910887312123293
-0.0016784924086366065,-0.02668802929732204
0.004364080262455177,-0.02333104448004883
0.0023498893720912484,-0.021652552071412222
0.0003356984817273213,-0.020309758144502935
-0.0010070954451819635,-0.019806210421911954
0.006378271152819104,-0.025177386129549097
0.007721065079728388,-0.035751888303959714
0.0016784924086366065,-0.054551003280689715
0.0003356984817273213,-0.0800640878919661
0.0010070954451819635,-0.1040665293354696
0.0010070954451819635,-0.11699092088197145
-0.006378271152819104,-0.10843060959792476
-0.006378271152819104,-0.08342107270923933
-0.004364080262455177,-0.05119401846341649
-0.007721065079728388,-0.01829556725413901
-0.007049668116273747,0.006546120393682764
-0.0050354772259098195,0.019974059662775615
0.0006713969634546426,0.019302662699320974
0.007721065079728388,0.011917296101319903
0.015106431677729458,0.0025177386129549098
0.013092240787365528,-0.004196231021591517
0.006378271152819104,-0.009567406729228655
0.003692683299000534,-0.01896696421759365
0.0023498893720912484,-0.027695124742504008
0.007049668116273747,-0.03105210955977722
0.013092240787365528,-0.028702220187685965
0.014435034714274816,-0.02366674296177615
0.010406652933546959,-0.022995345998321506
0.004364080262455177,-0.027023727779049357
0.006378271152819104,-0.029709315632867935
0.010406652933546959,-0.030380712596322572
0.008392462043183033,-0.03105210955977722
0.008392462043183033,-0.03743038071259632
0.004699778744182497,-0.04515144579232471
0.007721065079728388,-0.049851224536507206
0.009735255970092317,-0.04917982757305257
0.010406652933546959,-0.04078736552986953
0.007721065079728388,-0.03121995880064088
0.008392462043183033,-0.021652552071412222
0.016449225604638743,-0.017959868772411687
0.0157778286411841,-0.025009536888685433
0.011749446860456245,-0.03743038071259632
0.011749446860456245,-0.049347676813916226
0.015106431677729458,-0.049515526054779886
0.015106431677729458,-0.0379339284351873
0.011749446860456245,-0.022323949034866862
0.01846341649500267,-0.008224612802319372
0.029205767910276948,-0.0008392462043183033
0.03054856183718624,-0.00016784924086366064
0.020477607385366595,-0.007553215838864729
0.007049668116273747,-0.014267185473411156
0.007049668116273747,-0.016617074845502403
0.013092240787365528,-0.01560997940032044
0.012756542305638208,-0.01628137636377508
0.009735255970092317,-0.01896696421759365
0.004364080262455177,-0.021820401312275882
0.009063859006637675,-0.02652018005645838
0.0030212863355458916,-0.03172350652323186
-0.005706874189364461,-0.03474479285877775
-0.005706874189364461,-0.03843747615777828
-0.006378271152819104,-0.04213015945677882
-0.012756542305638208,-0.03978027008468757
-0.021149004348821242,-0.03440909437705043
-0.013092240787365528,-0.030045014114595252
-0.0023498893720912484,-0.029709315632867935
-0.004364080262455177,-0.03105210955977722
-0.006042572671091783,-0.035416189822232394
-0.004364080262455177,-0.043808651865415424
0.003692683299000534,-0.04649423971923399
0.0030212863355458916,-0.04582284275577936
0.0016784924086366065,-0.04313725490196078
-0.0030212863355458916,-0.042465857938506144
-0.006042572671091783,-0.041962310215915156
-0.004364080262455177,-0.043808651865415424
-0.005706874189364461,-0.048508430609597926
-0.008728160524910353,-0.0473334859235523
-0.006378271152819104,-0.04313725490196078
-0.0010070954451819635,-0.03776607919432364
0.003356984817273213,-0.032730601968413826
-0.0003356984817273213,-0.033401998931868467
-0.0006713969634546426,-0.04078736552986953
0.0050354772259098195,-0.051865415426871134
0.003356984817273213,-0.05522240024414436
0.0023498893720912484,-0.05253681239032577
0.0023498893720912484,-0.05253681239032577
0.0010070954451819635,-0.050522621499961846
-0.0003356984817273213,-0.049515526054779886
0.0006713969634546426,-0.051865415426871134
-0.0023498893720912484,-0.05589379720759898
-0.0003356984817273213,-0.05824368657969024
0.0030212863355458916,-0.05790798809796292
-0.003692683299000534,-0.061936369878690785
-0.01376363775082017,-0.06663614862287326
-0.01376363775082017,-0.06562905317769131
-0.008392462043183033,-0.06411841000991834
-0.0016784924086366065,-0.05958648050659952
-0.0003356984817273213,-0.05387960631723506
0.009063859006637675,-0.05119401846341649
0.010406652933546959,-0.05253681239032577
-0.0010070954451819635,-0.05958648050659952
-0.0016784924086366065,-0.06260776684214542
0.004699778744182497,-0.06025787747005417
0.008392462043183033,-0.05354390783550774
0.01376363775082017,-0.04783703364614328
0.015442130159456776,-0.044815747310597384
0.009063859006637675,-0.04750133516441596
0.006378271152819104,-0.052201113908598454
0.011749446860456245,-0.049347676813916226
0.012420843823910887,-0.04078736552986953
0.006378271152819104,-0.027023727779049357
0.010406652933546959,-0.01359578850995651
0.011413748378728923,-0.008896009765774012
0.009063859006637675,-0.014267185473411156
0.003692683299000534,-0.02719157701991302
0.015106431677729458,-0.036423285267414354
0.021149004348821242,-0.041123064011596856
-0.0003356984817273213,-0.041794460975051496
-0.012420843823910887,-0.03978027008468757
-0.009063859006637675,-0.04414435034714275
0.0023498893720912484,-0.05656519417105363
0.010406652933546959,-0.07066453040360113
0.012420843823910887,-0.08090333409628443
0.008392462043183033,-0.07939269092851148
0.007721065079728388,-0.06999313344014649
0.01846341649500267,-0.05387960631723506
0.021149004348821242,-0.029205767910276948
0.019806210421911954,-0.0008392462043183033
0.021820401312275882,0.02937361715114061
0.023163195239185166,0.04750133516441596
0.025177386129549097,0.04414435034714275
0.015106431677729458,0.024673838406958113
0.010406652933546959,-0.0015106431677729458
0.009735255970092317,-0.020309758144502935
0.0010070954451819635,-0.027695124742504008
-0.003692683299000534,-0.023163195239185166
-0.003356984817273213,-0.013092240787365528
0.0003356984817273213,-0.007553215838864729
-0.0006713969634546426,-0.0055390249485008005
-0.0016784924086366065,-0.006881818875410085
-0.005706874189364461,-0.008896009765774012
-0.01376363775082017,-0.012252994583047227
-0.011078049897001601,-0.016617074845502403
-0.010070954451819639,-0.020309758144502935
-0.008392462043183033,-0.022995345998321506
-0.009063859006637675,-0.021652552071412222
-0.008392462043183033,-0.01628137636377508
-0.008392462043183033,-0.010238803692683297
-0.012420843823910887,-0.008560311284046692
-0.008392462043183033,-0.006210421911955443
-0.0010070954451819635,-0.0008392462043183033
-0.0003356984817273213,0.0011749446860456242
-0.0003356984817273213,-0.0021820401312275884
0.006042572671091783,-0.010910200656137941
0.012420843823910887,-0.02333104448004883
0.014435034714274816,-0.035416189822232394
0.016784924086366067,-0.044815747310597384
0.014435034714274816,-0.04917982757305257
0.0157778286411841,-0.044647898069733724
0.023834592202639806,-0.03105210955977722
0.021149004348821242,-0.007553215838864729
0.012420843823910887,0.01695277332722972
0.006378271152819104,0.03407339589532311
0.005706874189364461,0.03994811932555123
0.008392462043183033,0.03407339589532311
0.007721065079728388,0.022323949034866862
0.01376363775082017,0.009231708247501335
0.014435034714274816,0.0021820401312275884
-0.002014190890363927,-0.007217517357137408
-0.014435034714274816,-0.021988250553139542
-0.016449225604638743,-0.03407339589532311
-0.006378271152819104,-0.044815747310597384
0.0003356984817273213,-0.048676279850461586
0.0050354772259098195,-0.04917982757305257
0.0050354772259098195,-0.04599069199664301
0.0016784924086366065,-0.04129091325246051
0.010406652933546959,-0.03994811932555123
0.013092240787365528,-0.03978027008468757
0.014435034714274816,-0.041794460975051496
0.023834592202639806,-0.04213015945677882
0.020477607385366595,-0.03927672236209659
0.003356984817273213,-0.035751888303959714
-0.011078049897001601,-0.033401998931868467
-0.014435034714274816,-0.03776607919432364
-0.011078049897001601,-0.04649423971923399
-0.011749446860456245,-0.05706874189364462
-0.01376363775082017,-0.064789806973373
-0.015106431677729458,-0.06730754558632791
-0.01376363775082017,-0.0694895857175555
-0.011749446860456245,-0.0780498970016022
-0.006378271152819104,-0.08744945448996719
-0.002014190890363927,-0.09416342412451362
-0.0003356984817273213,-0.0963454642557412
0.009063859006637675,-0.09987029831387809
0.013092240787365528,-0.10557717250324253
0.010406652933546959,-0.11044480048828872
0.007721065079728388,-0.11262684061951626
0.012420843823910887,-0.10154879072251469
0.011749446860456245,-0.08140688181887541
0.0050354772259098195,-0.056900892652780956
0.008392462043183033,-0.042465857938506144
0.012756542305638208,-0.040451667048142216
0.011413748378728923,-0.04548714427405204
0.009063859006637675,-0.05522240024414436
0.007721065079728388,-0.06025787747005417
0.0050354772259098195,-0.05992217898832684
0.004699778744182497,-0.05740444037537193
0.003692683299000534,-0.05522240024414436
0.005706874189364461,-0.05387960631723506
0.006378271152819104,-0.053208209353780414
0.013092240787365528,-0.057236591134508276
0.013092240787365528,-0.05857938506141757
0.009735255970092317,-0.052201113908598454
0.011078049897001601,-0.041962310215915156
0.010406652933546959,-0.03474479285877775
0.007721065079728388,-0.036423285267414354
-0.0003356984817273213,-0.041626611734187836
0.0050354772259098195,-0.043472953383688104
0.010406652933546959,-0.040451667048142216
0.011749446860456245,-0.0323949034866865
0.011078049897001601,-0.029037918669413288
0.009735255970092317,-0.03105210955977722
0.010070954451819639,-0.029877164873731592
0.0006713969634546426,-0.025680933852140077
0.0010070954451819635,-0.0213168535896849
-0.0003356984817273213,-0.0213168535896849
-0.006378271152819104,-0.02333104448004883
-0.0030212863355458916,-0.027695124742504008
-0.0010070954451819635,-0.035416189822232394
-0.008392462043183033,-0.0387731746395056
-0.008392462043183033,-0.03978027008468757
-0.006378271152819104,-0.03944457160296025
-0.005706874189364461,-0.037094682230869
-0.009735255970092317,-0.030380712596322572
-0.0050354772259098195,-0.019974059662775615
0.0010070954451819635,-0.011245899137865261
0.0010070954451819635,-0.0015106431677729458
0.0016784924086366065,0.005874723430228122
0.0003356984817273213,0.010574502174410621
0.0016784924086366065,0.011917296101319903
0.004364080262455177,0.008560311284046692
0.004699778744182497,0.003692683299000534
0.0003356984817273213,-0.0021820401312275884
-0.0010070954451819635,-0.006210421911955443
0.008728160524910353,-0.009567406729228655
0.004364080262455177,-0.008560311284046692
-0.0003356984817273213,-0.006881818875410085
0.0030212863355458916,-0.009567406729228655
0.0050354772259098195,-0.01695277332722972
0.007721065079728388,-0.027023727779049357
0.004364080262455177,-0.03675898374914168
0.006713969634546426,-0.04213015945677882
0.013092240787365528,-0.053208209353780414
0.010406652933546959,-0.06697184710460058
0.010406652933546959,-0.06932173647669183
0.011749446860456245,-0.060761425192645144
0.011749446860456245,-0.04615854123750667
0.011413748378728923,-0.03407339589532311
0.0157778286411841,-0.022323949034866862
0.010406652933546959,-0.009063859006637675
0.008392462043183033,-0.0010070954451819635
0.012420843823910887,0.003860532539864194
0.012420843823910887,0.0016784924086366065
0.009399557488364994,-0.0052033264667734795
0.008392462043183033,-0.0157778286411841
0.013092240787365528,-0.028702220187685965
0.0157778286411841,-0.042465857938506144
0.009063859006637675,-0.05790798809796292
0.007049668116273747,-0.06613260090028229
0.007721065079728388,-0.06663614862287326
-0.0016784924086366065,-0.05874723430228122
-0.009735255970092317,-0.049851224536507206
-0.015106431677729458,-0.04682993820096131
-0.015106431677729458,-0.05253681239032577
-0.011078049897001601,-0.06294346532387274
-0.010406652933546959,-0.06932173647669183
-0.009063859006637675,-0.07200732433051041
-0.007049668116273747,-0.07167162584878309
0.003692683299000534,-0.07066453040360113
0.009063859006637675,-0.07200732433051041
0.005706874189364461,-0.07402151522087433
0.0023498893720912484,-0.06831464103150987
-0.004364080262455177,-0.054551003280689715
-0.012420843823910887,-0.04061951628900587
-0.009735255970092317,-0.03776607919432364
0.0030212863355458916,-0.04313725490196078
0.013092240787365528,-0.04582284275577936
0.014099336232547494,-0.04783703364614328
0.008728160524910353,-0.048676279850461586
0.0016784924086366065,-0.049851224536507206
0.0050354772259098195,-0.04917982757305257
0.004699778744182497,-0.044815747310597384
0.006378271152819104,-0.03440909437705043
0.007721065079728388,-0.018631265735866327
0.003692683299000534,-0.007553215838864729
0.007721065079728388,0.0021820401312275884
0.013092240787365528,0.007553215838864729
0.007721065079728388,0.004196231021591517
0.008392462043183033,-0.0035248340581368735
0.008728160524910353,-0.014938582436865796
0.007721065079728388,-0.021988250553139542
0.008728160524910353,-0.022995345998321506
0.011749446860456245,-0.01695277332722972
0.012420843823910887,-0.012588693064774548
0.008392462043183033,-0.01695277332722972
0.007385366598001068,-0.021988250553139542
0.005706874189364461,-0.02400244144350347
0.007721065079728388,-0.021820401312275882
0.008728160524910353,-0.01829556725413901
0.0016784924086366065,-0.01326009002822919
-0.008392462043183033,-0.004867627985046159
-0.01376363775082017,-0.00016784924086366064
-0.007721065079728388,-0.004196231021591517
-0.008392462043183033,-0.014938582436865796
-0.005706874189364461,-0.027023727779049357
0.003692683299000534,-0.03172350652323186
0.010406652933546959,-0.03138780804150454
0.011413748378728923,-0.029709315632867935
0.0050354772259098195,-0.020981155107957578
0.009063859006637675,-0.0052033264667734795
0.014435034714274816,0.013931486991683832
0.007721065079728388,0.024338139925230793
0.007385366598001068,0.021988250553139542
0.007721065079728388,0.009231708247501335
0.008392462043183033,-0.009903105210955977
0.008392462043183033,-0.027359426260776684
0.0006713969634546426,-0.04145876249332417
-0.006378271152819104,-0.04414435034714275
-0.011749446860456245,-0.04145876249332417
-0.009735255970092317,-0.042465857938506144
-0.008392462043183033,-0.04582284275577936
-0.009735255970092317,-0.050522621499961846
-0.009735255970092317,-0.04750133516441596
0.0016784924086366065,-0.04313725490196078
0.006713969634546426,-0.03776607919432364
0.0016784924086366065,-0.03608758678568704
0.0016784924086366065,-0.043305104142824444
0.0050354772259098195,-0.05555809872587166
-0.0003356984817273213,-0.07200732433051041
0.0023498893720912484,-0.08274967574578469
0.004699778744182497,-0.08207827878233005
0.010070954451819639,-0.07234302281223774
0.015442130159456776,-0.06092927443350881
0.013092240787365528,-0.05119401846341649
-0.0016784924086366065,-0.043808651865415424
-0.01376363775082017,-0.041794460975051496
-0.0016784924086366065,-0.044815747310597384
0.0016784924086366065,-0.04515144579232471
-0.0030212863355458916,-0.04599069199664301
-0.006378271152819104,-0.051865415426871134
-0.0050354772259098195,-0.057236591134508276
-0.0010070954451819635,-0.05992217898832684
0.0010070954451819635,-0.05555809872587166
0.007049668116273747,-0.049851224536507206
0.005706874189364461,-0.048508430609597926
-0.007049668116273747,-0.048676279850461586
-0.009735255970092317,-0.05253681239032577
-0.009735255970092317,-0.05522240024414436
-0.009735255970092317,-0.05371175707637141
-0.0016784924086366065,-0.04716563668268864
0.004364080262455177,-0.044480048828870064
0.007049668116273747,-0.05085831998168917
0.0010070954451819635,-0.05958648050659952
0.0016784924086366065,-0.06898603799496453
0.0030212863355458916,-0.07486076142519264
-0.002014190890363927,-0.0767071030746929
-0.0016784924086366065,-0.07301441977569237
0.0053711757076371405,-0.06999313344014649
0.0050354772259098195,-0.06831464103150987
-0.003692683299000534,-0.062272068360418105
0.0006713969634546426,-0.054551003280689715
0.007049668116273747,-0.044480048828870064
0.0050354772259098195,-0.03373769741359579
0.003692683299000534,-0.024338139925230793
0.0050354772259098195,-0.021149004348821242
0.013092240787365528,-0.027695124742504008
0.01846341649500267,-0.033066300450141146
0.020477607385366595,-0.03373769741359579
0.016784924086366067,-0.028366521705958644
0.010406652933546959,-0.016784924086366067
0.007721065079728388,-0.010238803692683297
0.009735255970092317,-0.014267185473411156
0.007721065079728388,-0.019638361181048294
0.010406652933546959,-0.022995345998321506
0.013092240787365528,-0.021652552071412222
0.010406652933546959,-0.020645456626230255
0.0016784924086366065,-0.02366674296177615
-0.0003356984817273213,-0.03121995880064088
0.007049668116273747,-0.042801556420233464
0.009063859006637675,-0.044480048828870064
