EMG Sensor 0,EMG Sensor 1
0.0,0.0
0.0,0.0
0.0,0.0
0.0,0.0
0.0,0.0
0.0,0.0
0.0,0.0
0.0,0.0
0.0,0.0
0.0,0.0
0.0,0.0
0.0,0.0
0.0,0.0
0.0,0.0
0.0,0.0
0.0,0.0
0.0,0.0
0.0,0.0
0.0,0.0
0.0,0.0
0.0,0.0
0.0,0.0
0.0,0.0
0.0,0.0
0.0,0.0
0.0,0.0
0.0,0.0
0.0,0.0
0.0,0.0
0.0,0.0
0.0,0.0
0.0,0.0
0.0,0.0
0.0,0.0
0.0,0.0
0.0,0.0
0.0,0.0
0.0,0.0
0.0,0.0
0.0,0.0
0.0,0.0
0.0,0.0
0.0,0.0
0.0,0.0
0.0,0.0
0.0,0.0
0.0,0.0
0.0,0.0
0.0,0.0
0.0,0.0
0.0,0.0
0.0,0.0
0.0,0.0
0.0,0.0
0.0,0.0
0.0,0.0
0.0,0.0
0.0,0.0
0.0,0.0
0.0,0.0
0.0,0.0
0.0,0.0
0.0,0.0
0.0,0.0
0.0,0.0
0.0,0.0
0.0,0.0
0.0,0.0
0.0,0.0
0.0,0.0
0.0,0.0
0.0,0.0
0.0,0.0
0.0,0.0
0.0,0.0
0.0,0.0
0.0,0.0
0.0,0.0
0.0,0.0
0.0,0.0
0.0,0.0
0.0,0.0
0.0,0.0
0.0,0.0
0.0,0.0
0.0,0.0
0.0,0.0
0.0,0.0
0.0,0.0
0.0,0.0
0.0,0.0
0.0,0.0
0.0,0.0
0.0,0.0
0.0,0.0
0.0,0.0
0.0,0.0
0.0,0.0
0.0,0.0
0.0,0.0
0.0,0.0
0.0,0.0
0.0,0.0
0.0,0.0
0.0,0.0
0.0,0.0
0.0,0.0
0.0,0.0
0.0,0.0
0.0,0.0
0.0,0.0
0.0,0.0
0.0,0.0
0.0,0.0
0.0,0.0
0.0,0.0
0.0,0.0
0.0,0.0
0.0,0.0
0.0,0.0
0.0,0.0
0.0,0.0
0.0,0.0
0.0,0.0
0.0,0.0
0.0,0.0
0.0,0.0
0.0,0.0
0.0,0.0
0.0,0.0
0.0,0.0
0.0,0.0
0.0,0.0
0.0,0.0
0.0,0.0
0.0,0.0
0.0,0.0
0.0,0.0
0.0,0.0
0.0,0.0
0.0,0.0
0.0,0.0
0.0,0.0
0.0,0.0
0.0,0.0
0.0,0.0
0.0,0.0
0.0,0.0
0.0,0.0
0.0,0.0
0.0,0.0
0.0,0.0
0.0,0.0
0.0,0.0
0.0,0.0
0.0,0.0
0.0,0.0
0.0,0.0
0.0,0.0
0.0,0.0
0.0,0.0
0.0,0.0
0.0,0.0
0.0,0.0
0.0,0.0
0.0,0.0
0.0,0.0
0.0,0.0
0.0,0.0
0.0,0.0
-0.006378271152819104,0.0
0.004364080262455177,0.0
0.008728160524910353,0.0
0.006042572671091783,0.0
-0.0003356984817273213,0.0
-0.007049668116273747,0.0
-0.007385366598001068,0.0
-0.009735255970092317,0.0
-0.009735255970092317,0.0
-0.003692683299000534,0.0
-0.0030212863355458916,0.0
0.0023498893720912484,0.0
0.007721065079728388,0.0
0.010406652933546959,0.0
0.0157778286411841,0.0
0.01812771801327535,0.0
0.01846341649500267,0.0
0.011749446860456245,0.0
0.004028381780727854,0.0
0.012420843823910887,0.0
0.019806210421911954,0.0
0.021149004348821242,0.0
0.019806210421911954,0.0
0.011078049897001601,0.0
0.003356984817273213,0.0
0.0023498893720912484,0.0
-0.0003356984817273213,0.0
-0.0030212863355458916,0.0
-0.006378271152819104,0.0
-0.007049668116273747,0.0
-0.0030212863355458916,0.0
0.0003356984817273213,0.0
0.007049668116273747,0.0
0.0010070954451819635,0.0
-0.0030212863355458916,0.0
0.003356984817273213,0.0
0.011749446860456245,0.0
0.0157778286411841,0.0
0.01913481345845731,0.0
0.012420843823910887,0.0
0.010406652933546959,0.0
0.010406652933546959,0.0
0.014099336232547494,0.0
0.0157778286411841,0.0
0.009735255970092317,0.0
0.005706874189364461,0.0
0.009063859006637675,0.0
0.006378271152819104,0.0
0.0016784924086366065,0.0
-0.0023498893720912484,0.0
-0.0050354772259098195,0.0
-0.006042572671091783,0.0
-0.006378271152819104,0.0
-0.003356984817273213,0.0
-0.0023498893720912484,0.0
0.0023498893720912484,0.0
0.013092240787365528,0.0
0.01812771801327535,0.0
0.020477607385366595,0.0
0.023163195239185166,0.0
0.021149004348821242,0.0
0.016784924086366067,0.0
0.017120622568093383,0.0
0.017120622568093383,0.0
0.01376363775082017,0.0
0.014435034714274816,0.0
0.007049668116273747,0.0
0.003692683299000534,0.0
0.0050354772259098195,0.0
-0.0006713969634546426,0.0
-0.005706874189364461,0.0
-0.0050354772259098195,0.0
-0.005706874189364461,0.0
-0.009735255970092317,0.0
-0.008392462043183033,0.0
-0.007721065079728388,0.0
-0.004364080262455177,0.0
0.0050354772259098195,0.0
0.0030212863355458916,0.0
-0.005706874189364461,0.0
0.0010070954451819635,0.0
0.016449225604638743,0.0
0.019806210421911954,0.0
0.025177386129549097,0.0
0.025177386129549097,0.0
0.023834592202639806,0.0
0.01913481345845731,0.0
0.0157778286411841,0.0
0.010406652933546959,0.0
0.0050354772259098195,0.0
0.005706874189364461,0.0
0.0023498893720912484,0.0
-0.004364080262455177,0.0
-0.009735255970092317,0.0
-0.008392462043183033,0.0
-0.0050354772259098195,0.0
0.0016784924086366065,0.0
0.010406652933546959,0.0
0.013092240787365528,0.0
0.016449225604638743,0.0
0.012756542305638208,0.0
0.010406652933546959,0.0
0.013092240787365528,0.0
0.023163195239185166,0.0
0.019806210421911954,0.0
0.0023498893720912484,0.0
0.0006713969634546426,0.0
0.0023498893720912484,0.0
0.006378271152819104,0.0
0.006378271152819104,0.0
0.0023498893720912484,0.0
0.0016784924086366065,0.0
0.0010070954451819635,0.0
-0.004364080262455177,0.0
-0.005706874189364461,0.0
-0.0010070954451819635,0.0
-0.0010070954451819635,0.0
-0.003356984817273213,0.0
-0.005706874189364461,0.0
0.0010070954451819635,0.0
0.007049668116273747,0.0
0.01376363775082017,0.0
0.016449225604638743,0.0
0.010406652933546959,0.0
0.013092240787365528,0.0
0.015442130159456776,0.0
0.014099336232547494,0.0
0.010406652933546959,0.0
0.011749446860456245,0.0
0.010406652933546959,0.0
0.0010070954451819635,0.0
-0.0023498893720912484,0.0
-0.0030212863355458916,0.0
-0.010070954451819639,0.0
-0.011078049897001601,0.0
-0.007049668116273747,0.0
-0.005706874189364461,0.0
-0.003692683299000534,0.0
0.0003356984817273213,0.0
0.012420843823910887,0.0
0.0157778286411841,0.0
0.011749446860456245,0.0
0.011749446860456245,0.0
0.0157778286411841,0.0
0.017120622568093383,0.0
0.012420843823910887,0.0
0.009063859006637675,0.0
0.007721065079728388,0.0
0.006378271152819104,0.0
0.007721065079728388,0.0
0.004364080262455177,0.0
0.0010070954451819635,0.0
0.0050354772259098195,0.0
0.0050354772259098195,0.0
0.002014190890363927,0.0
0.003692683299000534,0.0
0.0010070954451819635,0.0
0.0050354772259098195,0.0
0.007721065079728388,0.0
0.004028381780727854,0.0
0.0010070954451819635,0.0
0.0030212863355458916,0.0
0.009063859006637675,0.0
0.013092240787365528,0.0
0.014435034714274816,0.0
0.015106431677729458,0.0
0.014099336232547494,0.0
0.014435034714274816,0.0
0.0157778286411841,0.0
0.01846341649500267,0.0
0.019806210421911954,0.0
0.014435034714274816,0.0
0.009735255970092317,0.0
0.009735255970092317,0.0
0.009063859006637675,0.0
0.0050354772259098195,0.0
0.004364080262455177,0.0
-0.005706874189364461,0.0
-0.011078049897001601,0.0
-0.0016784924086366065,0.0
-0.003692683299000534,0.0
-0.0003356984817273213,0.0
0.0023498893720912484,-0.041123064011596856
0.007049668116273747,-0.03608758678568704
0.011749446860456245,-0.028366521705958644
0.016784924086366067,-0.01628137636377508
0.021149004348821242,-0.006210421911955443
0.024841687647821773,-0.00016784924086366064
0.019806210421911954,0.0016784924086366065
0.011078049897001601,0.0025177386129549098
0.0023498893720912484,0.003860532539864194
-0.0003356984817273213,0.0011749446860456242
-0.0013427939269092851,-0.0050354772259098195
-0.006378271152819104,-0.011245899137865261
-0.009063859006637675,-0.012588693064774548
-0.005706874189364461,-0.016617074845502403
0.0010070954451819635,-0.025345235370412753
0.0050354772259098195,-0.032730601968413826
0.003692683299000534,-0.03508049134050507
0.0006713969634546426,-0.032730601968413826
-0.007721065079728388,-0.0323949034866865
-0.011413748378728923,-0.036423285267414354
-0.007049668116273747,-0.041123064011596856
0.006378271152819104,-0.042801556420233464
0.015442130159456776,-0.04515144579232471
0.010406652933546959,-0.048844129091325246
0.009063859006637675,-0.05270466163118945
0.011749446860456245,-0.056900892652780956
0.020477607385366595,-0.06092927443350881
0.023834592202639806,-0.06546120393682765
0.01812771801327535,-0.07200732433051041
0.016784924086366067,-0.07603570611123828
0.017792019531548024,-0.07267872129396505
0.01846341649500267,-0.06730754558632791
0.008392462043183033,-0.06126497291523613
0.009063859006637675,-0.053208209353780414
0.007721065079728388,-0.04582284275577936
-0.0016784924086366065,-0.040451667048142216
-0.003356984817273213,-0.035751888303959714
-0.004699778744182497,-0.03373769741359579
-0.0030212863355458916,-0.036423285267414354
-0.003692683299000534,-0.041794460975051496
-0.009063859006637675,-0.04213015945677882
-0.0050354772259098195,-0.03205920500495917
0.003692683299000534,-0.016617074845502403
0.003356984817273213,-0.008896009765774012
0.008392462043183033,-0.008224612802319372
0.013092240787365528,-0.007553215838864729
0.014435034714274816,-0.0021820401312275884
0.017120622568093383,-0.0021820401312275884
0.01913481345845731,-0.005874723430228122
0.021149004348821242,-0.010574502174410621
0.017120622568093383,-0.014938582436865796
0.014435034714274816,-0.020981155107957578
0.007721065079728388,-0.027023727779049357
0.006042572671091783,-0.03172350652323186
0.007721065079728388,-0.03508049134050507
0.0023498893720912484,-0.04011596856641489
-0.0003356984817273213,-0.043472953383688104
-0.0010070954451819635,-0.04414435034714275
-0.0050354772259098195,-0.043808651865415424
-0.009063859006637675,-0.044480048828870064
-0.009735255970092317,-0.04582284275577936
-0.0016784924086366065,-0.04917982757305257
0.006713969634546426,-0.05656519417105363
0.013092240787365528,-0.06495765621423667
0.01846341649500267,-0.07066453040360113
0.01846341649500267,-0.07133592736705577
0.01376363775082017,-0.07100022888532845
0.013092240787365528,-0.07402151522087433
0.003692683299000534,-0.07536430914778362
-0.011078049897001601,-0.07066453040360113
0.0010070954451819635,-0.06277561608300908
0.009063859006637675,-0.05085831998168917
0.010406652933546959,-0.042465857938506144
0.007721065079728388,-0.03675898374914168
0.010070954451819639,-0.03172350652323186
0.0050354772259098195,-0.03172350652323186
0.0006713969634546426,-0.02937361715114061
-0.0023498893720912484,-0.025680933852140077
-0.009735255970092317,-0.02366674296177615
-0.007049668116273747,-0.020309758144502935
-0.006378271152819104,-0.01628137636377508
-0.004364080262455177,-0.01359578850995651
-0.004364080262455177,-0.011581597619592583
-0.0003356984817273213,-0.006546120393682764
0.006378271152819104,-0.0015106431677729458
0.011749446860456245,0.0025177386129549098
0.01846341649500267,0.0052033264667734795
0.023163195239185166,0.007553215838864729
0.033234149691004806,0.007217517357137408
0.032898451209277486,0.0008392462043183033
0.023834592202639806,-0.007553215838864729
0.021149004348821242,-0.012252994583047227
0.020813305867093918,-0.012420843823910887
0.014435034714274816,-0.012420843823910887
0.013092240787365528,-0.01896696421759365
0.009063859006637675,-0.026352330815594724
0.0050354772259098195,-0.027695124742504008
-0.0010070954451819635,-0.0260166323338674
-0.008392462043183033,-0.027695124742504008
-0.009735255970092317,-0.032730601968413826
-0.009735255970092317,-0.03994811932555123
-0.004364080262455177,-0.04716563668268864
-0.005706874189364461,-0.054047455558098714
-0.0030212863355458916,-0.05790798809796292
0.0050354772259098195,-0.05941863126573587
0.003692683299000534,-0.05992217898832684
0.007721065079728388,-0.06327916380560006
0.017120622568093383,-0.06965743495841917
0.01913481345845731,-0.07200732433051041
0.01846341649500267,-0.06831464103150987
0.019470511940184634,-0.060593575951781484
0.021149004348821242,-0.050186923018234526
0.025177386129549097,-0.04582284275577936
0.02349889372091249,-0.04666208896009766
0.023834592202639806,-0.04917982757305257
0.007721065079728388,-0.048844129091325246
-0.008728160524910353,-0.04783703364614328
-0.023163195239185166,-0.044480048828870064
-0.021820401312275882,-0.040451667048142216
-0.011078049897001601,-0.036423285267414354
-0.003692683299000534,-0.030716411078049892
0.0023498893720912484,-0.024338139925230793
-0.0016784924086366065,-0.01829556725413901
-0.004699778744182497,-0.009903105210955977
-0.002014190890363927,-0.0008392462043183033
0.003692683299000534,0.004531929503318838
0.009063859006637675,0.0025177386129549098
0.009735255970092317,-0.00016784924086366064
0.007721065079728388,-0.0008392462043183033
0.007721065079728388,-0.0028534370946822307
0.013092240787365528,-0.0055390249485008005
0.011749446860456245,-0.012588693064774548
0.011078049897001601,-0.022995345998321506
0.014435034714274816,-0.028366521705958644
0.015106431677729458,-0.027695124742504008
0.009063859006637675,-0.023163195239185166
0.007049668116273747,-0.020981155107957578
0.009735255970092317,-0.023834592202639806
0.013092240787365528,-0.0323949034866865
0.009735255970092317,-0.041962310215915156
0.009063859006637675,-0.04750133516441596
0.006378271152819104,-0.051865415426871134
-0.0016784924086366065,-0.05522240024414436
-0.007721065079728388,-0.05824368657969024
-0.012420843823910887,-0.06260776684214542
-0.016449225604638743,-0.06596475165941862
-0.01913481345845731,-0.06865033951323721
-0.007385366598001068,-0.0703288319218738
0.008392462043183033,-0.06999313344014649
0.016449225604638743,-0.061936369878690785
0.016449225604638743,-0.049515526054779886
0.023163195239185166,-0.041794460975051496
0.02652018005645838,-0.03910887312123293
0.02584878309300374,-0.043472953383688104
0.02584878309300374,-0.04548714427405204
0.021149004348821242,-0.041962310215915156
0.009735255970092317,-0.03776607919432364
-0.006378271152819104,-0.03508049134050507
-0.006042572671091783,-0.03440909437705043
-0.002014190890363927,-0.03105210955977722
-0.0030212863355458916,-0.021988250553139542
-0.007385366598001068,-0.010238803692683297
-0.007721065079728388,-0.001846341649500267
-0.0030212863355458916,0.0015106431677729458
0.0010070954451819635,0.001846341649500267
0.0010070954451819635,0.0025177386129549098
0.0030212863355458916,0.003189135576409552
0.009063859006637675,0.001846341649500267
0.010406652933546959,-0.004531929503318838
0.014435034714274816,-0.01560997940032044
0.022491798275730522,-0.02668802929732204
0.02652018005645838,-0.03373769741359579
0.022491798275730522,-0.03910887312123293
0.022491798275730522,-0.043472953383688104
0.022491798275730522,-0.04582284275577936
0.022491798275730522,-0.04313725490196078
0.0157778286411841,-0.03944457160296025
0.0157778286411841,-0.03994811932555123
0.012420843823910887,-0.044480048828870064
0.010406652933546959,-0.050019073777370866
0.006378271152819104,-0.05522240024414436
-0.003356984817273213,-0.05857938506141757
-0.011078049897001601,-0.06327916380560006
-0.011749446860456245,-0.06932173647669183
-0.0157778286411841,-0.07167162584878309
-0.012420843823910887,-0.07402151522087433
-0.003356984817273213,-0.07737850003814756
-0.004364080262455177,-0.07905699244678416
-0.005706874189364461,-0.07603570611123828
-0.002014190890363927,-0.06764324406805522
0.0023498893720912484,-0.05656519417105363
0.009063859006637675,-0.049851224536507206
0.010406652933546959,-0.04582284275577936
0.016449225604638743,-0.042465857938506144
0.019806210421911954,-0.03776607919432364
0.016784924086366067,-0.035416189822232394
0.009735255970092317,-0.0387731746395056
0.012420843823910887,-0.03994811932555123
0.008392462043183033,-0.03810177767605096
0.011078049897001601,-0.03105210955977722
0.011413748378728923,-0.020309758144502935
0.0016784924086366065,-0.008896009765774012
0.0010070954451819635,0.0016784924086366065
0.0010070954451819635,0.007217517357137408
0.0010070954451819635,0.011581597619592583
0.0010070954451819635,0.014267185473411156
-0.0006713969634546426,0.013931486991683832
-0.0030212863355458916,0.011245899137865261
-0.0030212863355458916,0.003860532539864194
0.0023498893720912484,-0.006881818875410085
0.005706874189364461,-0.017959868772411687
0.007721065079728388,-0.025009536888685433
0.012420843823910887,-0.028366521705958644
0.019806210421911954,-0.029877164873731592
0.021149004348821242,-0.03256275272755016
0.019806210421911954,-0.03508049134050507
0.01913481345845731,-0.03407339589532311
0.0157778286411841,-0.033066300450141146
0.011078049897001601,-0.03843747615777828
0.006378271152819104,-0.048844129091325246
0.005706874189364461,-0.05522240024414436
0.004364080262455177,-0.057236591134508276
0.0023498893720912484,-0.06025787747005417
-0.0003356984817273213,-0.0639505607690547
-0.005706874189364461,-0.06865033951323721
-0.0016784924086366065,-0.07301441977569237
0.0010070954451819635,-0.07351796749828336
-0.0023498893720912484,-0.0703288319218738
-0.0016784924086366065,-0.06596475165941862
-0.0006713969634546426,-0.059250782024872196
-0.0010070954451819635,-0.053208209353780414
0.0016784924086366065,-0.04582284275577936
0.012420843823910887,-0.03910887312123293
0.025177386129549097,-0.03373769741359579
0.02584878309300374,-0.030380712596322572
0.017120622568093383,-0.03407339589532311
0.0023498893720912484,-0.03927672236209659
-0.005706874189364461,-0.041123064011596856
-0.0003356984817273213,-0.035751888303959714
0.011749446860456245,-0.024338139925230793
0.009735255970092317,-0.01326009002822919
0.007721065079728388,-0.006378271152819104
0.007721065079728388,-0.0050354772259098195
0.0010070954451819635,-0.0030212863355458916
0.0050354772259098195,-0.0008392462043183033
0.004364080262455177,0.0011749446860456242
-0.003692683299000534,0.0021820401312275884
-0.01913481345845731,0.0011749446860456242
-0.028198672465094988,0.0008392462043183033
-0.011078049897001601,-0.006210421911955443
0.0050354772259098195,-0.017624170290684367
0.011413748378728923,-0.02366674296177615
0.013092240787365528,-0.025009536888685433
0.0157778286411841,-0.027695124742504008
0.01812771801327535,-0.0323949034866865
0.021149004348821242,-0.036423285267414354
0.020477607385366595,-0.035751888303959714
0.01913481345845731,-0.03407339589532311
0.0157778286411841,-0.03843747615777828
0.017120622568093383,-0.049851224536507206
0.021820401312275882,-0.05857938506141757
0.01846341649500267,-0.06092927443350881
0.017120622568093383,-0.06361486228732739
0.009735255970092317,-0.06327916380560006
0.004364080262455177,-0.06092927443350881
0.0023498893720912484,-0.06126497291523613
-0.0023498893720912484,-0.06462195773250935
-0.0030212863355458916,-0.06596475165941862
-0.008728160524910353,-0.05941863126573587
-0.010406652933546959,-0.050522621499961846
-0.004699778744182497,-0.042465857938506144
-0.0003356984817273213,-0.03826962691691462
0.0016784924086366065,-0.03440909437705043
0.0030212863355458916,-0.0323949034866865
0.010406652933546959,-0.03474479285877775
0.0157778286411841,-0.035751888303959714
0.014435034714274816,-0.03407339589532311
0.0157778286411841,-0.030380712596322572
0.014099336232547494,-0.022995345998321506
0.017120622568093383,-0.011245899137865261
0.0157778286411841,-0.0028534370946822307
0.012420843823910887,-0.004867627985046159
0.011078049897001601,-0.010910200656137941
0.006042572671091783,-0.015106431677729458
0.0023498893720912484,-0.012252994583047227
0.0006713969634546426,-0.003189135576409552
0.0023498893720912484,0.0028534370946822307
0.003692683299000534,0.001846341649500267
-0.0030212863355458916,-0.004531929503318838
-0.006378271152819104,-0.01359578850995651
-0.007049668116273747,-0.020645456626230255
-0.005706874189364461,-0.02668802929732204
-0.005706874189364461,-0.033066300450141146
-0.0030212863355458916,-0.03608758678568704
0.003356984817273213,-0.035919737544823374
0.010406652933546959,-0.03440909437705043
0.014435034714274816,-0.035416189822232394
0.011749446860456245,-0.03810177767605096
0.017120622568093383,-0.040451667048142216
0.019806210421911954,-0.048508430609597926
0.019806210421911954,-0.059250782024872196
0.020813305867093918,-0.06764324406805522
0.017120622568093383,-0.06932173647669183
0.01846341649500267,-0.06529335469596398
0.0157778286411841,-0.06462195773250935
0.0050354772259098195,-0.06865033951323721
-0.005706874189364461,-0.07335011825741969
-0.010406652933546959,-0.07133592736705577
-0.006378271152819104,-0.06730754558632791
-0.004364080262455177,-0.06092927443350881
-0.008392462043183033,-0.05119401846341649
-0.004364080262455177,-0.041123064011596856
0.0023498893720912484,-0.035751888303959714
0.0050354772259098195,-0.03843747615777828
0.010406652933546959,-0.040451667048142216
0.017120622568093383,-0.040451667048142216
0.013092240787365528,-0.03743038071259632
0.0157778286411841,-0.029709315632867935
0.021149004348821242,-0.0213168535896849
0.016449225604638743,-0.0157778286411841
0.007049668116273747,-0.011581597619592583
-0.0030212863355458916,-0.008560311284046692
-0.0016784924086366065,-0.006210421911955443
0.006378271152819104,-0.006881818875410085
0.009063859006637675,-0.012252994583047227
0.007049668116273747,-0.012588693064774548
0.006378271152819104,-0.007721065079728388
0.010406652933546959,-0.0035248340581368735
0.004364080262455177,-0.005706874189364461
0.0003356984817273213,-0.01560997940032044
-0.0016784924086366065,-0.028366521705958644
0.0050354772259098195,-0.0387731746395056
0.006378271152819104,-0.040451667048142216
-0.0003356984817273213,-0.03743038071259632
0.0016784924086366065,-0.035751888303959714
0.012420843823910887,-0.035919737544823374
0.010406652933546959,-0.03659113450827802
0.009063859006637675,-0.03994811932555123
0.009735255970092317,-0.04750133516441596
0.008392462043183033,-0.054551003280689715
0.0157778286411841,-0.06092927443350881
0.014435034714274816,-0.06730754558632791
0.0016784924086366065,-0.07083237964446479
-0.009735255970092317,-0.07150377660791943
-0.0030212863355458916,-0.07133592736705577
0.003692683299000534,-0.07100022888532845
0.006042572671091783,-0.06898603799496453
0.006378271152819104,-0.061936369878690785
0.0050354772259098195,-0.050522621499961846
0.0023498893720912484,-0.040451667048142216
0.0023498893720912484,-0.035248340581368734
0.006378271152819104,-0.0323949034866865
0.005706874189364461,-0.03105210955977722
0.003356984817273213,-0.02937361715114061
0.006378271152819104,-0.027023727779049357
0.0010070954451819635,-0.027023727779049357
-0.008392462043183033,-0.028030823224231328
-0.0030212863355458916,-0.02400244144350347
0.003692683299000534,-0.01896696421759365
0.011749446860456245,-0.008896009765774012
0.01846341649500267,0.0003356984817273213
0.020477607385366595,0.0028534370946822307
0.01846341649500267,0.003692683299000534
0.01846341649500267,0.003189135576409552
0.021149004348821242,0.0025177386129549098
0.016784924086366067,-0.0008392462043183033
0.011749446860456245,-0.004867627985046159
0.012420843823910887,-0.00788891432059205
0.011749446860456245,-0.013931486991683832
0.0050354772259098195,-0.021484702830548562
0.0023498893720912484,-0.028366521705958644
-0.0030212863355458916,-0.03105210955977722
-0.010406652933546959,-0.03172350652323186
-0.012756542305638208,-0.03373769741359579
-0.003692683299000534,-0.037094682230869
0.0016784924086366065,-0.040451667048142216
0.0010070954451819635,-0.04649423971923399
0.005706874189364461,-0.05790798809796292
0.0050354772259098195,-0.06663614862287326
0.005706874189364461,-0.06999313344014649
0.010406652933546959,-0.07133592736705577
0.017120622568093383,-0.0703288319218738
0.017120622568093383,-0.07066453040360113
0.010406652933546959,-0.07469291218432898
0.01812771801327535,-0.07536430914778362
0.020477607385366595,-0.07200732433051041
0.0157778286411841,-0.06613260090028229
0.011749446860456245,-0.05790798809796292
0.010070954451819639,-0.050522621499961846
0.004364080262455177,-0.041794460975051496
-0.004364080262455177,-0.03508049134050507
-0.005706874189364461,-0.02719157701991302
-0.009735255970092317,-0.025009536888685433
-0.010406652933546959,-0.029037918669413288
-0.006378271152819104,-0.029037918669413288
0.0016784924086366065,-0.029205767910276948
0.0050354772259098195,-0.030045014114595252
0.010406652933546959,-0.025009536888685433
0.014435034714274816,-0.012252994583047227
0.0030212863355458916,0.0011749446860456242
-0.0016784924086366065,0.007553215838864729
0.0013427939269092851,0.008392462043183033
-0.0010070954451819635,0.0050354772259098195
0.009063859006637675,0.004867627985046159
0.014435034714274816,0.004867627985046159
0.01846341649500267,0.0016784924086366065
0.020141908903639278,-0.0028534370946822307
0.019806210421911954,-0.008392462043183033
0.01846341649500267,-0.017624170290684367
0.012420843823910887,-0.03054856183718624
0.006378271152819104,-0.04078736552986953
-0.004364080262455177,-0.042801556420233464
-0.009735255970092317,-0.040451667048142216
-0.003692683299000534,-0.03944457160296025
-0.0003356984817273213,-0.041794460975051496
-0.003356984817273213,-0.04582284275577936
-0.0030212863355458916,-0.04716563668268864
0.0010070954451819635,-0.04917982757305257
0.0010070954451819635,-0.05488670176241703
0.007049668116273747,-0.06646829938200961
0.013092240787365528,-0.07838559548332952
0.0157778286411841,-0.08476386663614863
0.02584878309300374,-0.08342107270923933
0.03054856183718624,-0.0780498970016022
0.025177386129549097,-0.07435721370260165
0.011413748378728923,-0.06999313344014649
-0.005706874189364461,-0.062272068360418105
-0.0030212863355458916,-0.05555809872587166
0.011749446860456245,-0.049851224536507206
0.016449225604638743,-0.04716563668268864
0.010406652933546959,-0.04414435034714275
0.007049668116273747,-0.041794460975051496
0.006378271152819104,-0.04061951628900587
0.005706874189364461,-0.03843747615777828
0.004364080262455177,-0.035751888303959714
-0.0003356984817273213,-0.03256275272755016
0.002014190890363927,-0.029709315632867935
0.0023498893720912484,-0.020645456626230255
0.0030212863355458916,-0.008560311284046692
0.006378271152819104,-0.0005035477225909818
0.009063859006637675,0.006546120393682764
0.007721065079728388,0.009231708247501335
-0.003692683299000534,0.004531929503318838
-0.017120622568093383,-0.0008392462043183033
-0.013092240787365528,-0.0015106431677729458
-0.0010070954451819635,0.001846341649500267
0.011749446860456245,0.0011749446860456242
0.01913481345845731,-0.007553215838864729
0.020477607385366595,-0.01846341649500267
0.019806210421911954,-0.0260166323338674
0.017120622568093383,-0.028366521705958644
0.006042572671091783,-0.02937361715114061
0.008728160524910353,-0.03508049134050507
0.007721065079728388,-0.03944457160296025
0.0050354772259098195,-0.04145876249332417
-0.0016784924086366065,-0.040451667048142216
-0.007385366598001068,-0.03927672236209659
-0.003356984817273213,-0.03944457160296025
-0.0010070954451819635,-0.04313725490196078
-0.002014190890363927,-0.05337605859464408
0.0010070954451819635,-0.06462195773250935
0.006378271152819104,-0.06932173647669183
0.010406652933546959,-0.06797894254978255
0.013092240787365528,-0.06663614862287326
0.017120622568093383,-0.06562905317769131
0.0157778286411841,-0.06327916380560006
0.017120622568093383,-0.06260776684214542
0.017792019531548024,-0.060593575951781484
0.017120622568093383,-0.051865415426871134
0.019806210421911954,-0.04078736552986953
0.017792019531548024,-0.032730601968413826
0.011078049897001601,-0.03105210955977722
0.009063859006637675,-0.03373769741359579
0.003692683299000534,-0.035751888303959714
0.0003356984817273213,-0.032730601968413826
0.002014190890363927,-0.028366521705958644
-0.0030212863355458916,-0.025680933852140077
-0.006042572671091783,-0.01896696421759365
0.003692683299000534,-0.008896009765774012
0.0050354772259098195,0.0008392462043183033
-0.003692683299000534,0.0052033264667734795
-0.011413748378728923,0.007217517357137408
-0.007049668116273747,0.009231708247501335
-0.0006713969634546426,0.00788891432059205
0.003692683299000534,-0.003860532539864194
0.009063859006637675,-0.01695277332722972
0.012420843823910887,-0.021988250553139542
0.012420843823910887,-0.01896696421759365
0.016449225604638743,-0.019638361181048294
0.019806210421911954,-0.027023727779049357
0.02652018005645838,-0.029877164873731592
0.021820401312275882,-0.030716411078049892
0.019806210421911954,-0.0323949034866865
0.010070954451819639,-0.033401998931868467
0.007721065079728388,-0.033066300450141146
0.006042572671091783,-0.03910887312123293
-0.003356984817273213,-0.049851224536507206
-0.007049668116273747,-0.05790798809796292
-0.01376363775082017,-0.06294346532387274
-0.009735255970092317,-0.06596475165941862
-0.005706874189364461,-0.06730754558632791
-0.005706874189364461,-0.06764324406805522
-0.0030212863355458916,-0.06881818875410085
0.0016784924086366065,-0.0703288319218738
0.0010070954451819635,-0.06596475165941862
0.007721065079728388,-0.060593575951781484
0.017120622568093383,-0.05522240024414436
0.01913481345845731,-0.05119401846341649
0.016784924086366067,-0.04599069199664301
0.017792019531548024,-0.03659113450827802
0.016449225604638743,-0.029709315632867935
0.006042572671091783,-0.028702220187685965
0.007721065079728388,-0.027695124742504008
0.011413748378728923,-0.02668802929732204
0.011078049897001601,-0.029037918669413288
0.0050354772259098195,-0.030380712596322572
-0.0003356984817273213,-0.028702220187685965
-0.0050354772259098195,-0.02333104448004883
-0.003692683299000534,-0.016617074845502403
-0.0016784924086366065,-0.004364080262455177
-0.009063859006637675,0.0025177386129549098
-0.007049668116273747,0.0025177386129549098
-0.0006713969634546426,0.00016784924086366064
-0.0016784924086366065,-0.004364080262455177
0.0050354772259098195,-0.006210421911955443
0.014435034714274816,-0.009063859006637675
0.0157778286411841,-0.01359578850995651
0.01846341649500267,-0.017288471808957043
0.01812771801327535,-0.019974059662775615
0.014435034714274816,-0.020981155107957578
0.006042572671091783,-0.022995345998321506
0.0030212863355458916,-0.026352330815594724
0.007385366598001068,-0.02853437094682231
0.0157778286411841,-0.029709315632867935
0.017792019531548024,-0.03105210955977722
0.010406652933546959,-0.03810177767605096
0.006378271152819104,-0.04649423971923399
0.0003356984817273213,-0.05589379720759898
0.0010070954451819635,-0.06462195773250935
-0.0006713969634546426,-0.07402151522087433
-0.0030212863355458916,-0.07737850003814756
-0.0016784924086366065,-0.07402151522087433
-0.0003356984817273213,-0.06999313344014649
-0.0003356984817273213,-0.06680399786373693
0.0023498893720912484,-0.061936369878690785
0.007721065079728388,-0.05387960631723506
0.014099336232547494,-0.04313725490196078
0.013092240787365528,-0.035416189822232394
0.010406652933546959,-0.03944457160296025
0.0050354772259098195,-0.04615854123750667
-0.0016784924086366065,-0.04582284275577936
0.006042572671091783,-0.036423285267414354
0.01846341649500267,-0.026352330815594724
0.01846341649500267,-0.0260166323338674
0.019470511940184634,-0.029037918669413288
0.014099336232547494,-0.028702220187685965
0.008392462043183033,-0.024338139925230793
0.006378271152819104,-0.019638361181048294
0.0003356984817273213,-0.01292439154650187
-0.0010070954451819635,-0.007217517357137408
-0.0016784924086366065,-0.004196231021591517
-0.0006713969634546426,-0.005874723430228122
-0.0050354772259098195,-0.008560311284046692
-0.0003356984817273213,-0.008896009765774012
-0.002014190890363927,-0.009231708247501335
-0.008392462043183033,-0.010406652933546959
0.0016784924086366065,-0.01560997940032044
0.007385366598001068,-0.02333104448004883
0.013092240787365528,-0.028702220187685965
0.01846341649500267,-0.03474479285877775
0.023163195239185166,-0.03843747615777828
0.025177386129549097,-0.041794460975051496
0.025177386129549097,-0.043808651865415424
0.025177386129549097,-0.042465857938506144
0.021820401312275882,-0.04313725490196078
0.020477607385366595,-0.04783703364614328
0.0157778286411841,-0.05589379720759898
0.007721065079728388,-0.06361486228732739
0.0010070954451819635,-0.06630045014114595
-0.0016784924086366065,-0.06999313344014649
-0.0003356984817273213,-0.07536430914778362
-0.003692683299000534,-0.08140688181887541
0.0003356984817273213,-0.0861066605630579
0.0003356984817273213,-0.07939269092851148
-0.0016784924086366065,-0.06663614862287326
-0.0030212863355458916,-0.05522240024414436
0.0003356984817273213,-0.04716563668268864
0.0050354772259098195,-0.044647898069733724
0.0050354772259098195,-0.044815747310597384
0.005706874189364461,-0.043808651865415424
0.013092240787365528,-0.037094682230869
0.011749446860456245,-0.03138780804150454
0.013092240787365528,-0.029037918669413288
0.015442130159456776,-0.02668802929732204
0.011749446860456245,-0.02333104448004883
0.011749446860456245,-0.018631265735866327
0.014435034714274816,-0.014267185473411156
0.004364080262455177,-0.009567406729228655
-0.004699778744182497,-0.0028534370946822307
-0.003692683299000534,0.0011749446860456242
0.0010070954451819635,0.003189135576409552
0.0023498893720912484,0.0016784924086366065
0.0050354772259098195,-0.0055390249485008005
0.0023498893720912484,-0.013931486991683832
-0.006378271152819104,-0.017959868772411687
-0.008392462043183033,-0.01846341649500267
0.002014190890363927,-0.021652552071412222
0.005706874189364461,-0.025680933852140077
-0.0016784924086366065,-0.028702220187685965
-0.0003356984817273213,-0.03508049134050507
0.0050354772259098195,-0.03910887312123293
0.009063859006637675,-0.03978027008468757
0.009063859006637675,-0.04011596856641489
0.013092240787365528,-0.04213015945677882
0.013092240787365528,-0.04649423971923399
0.010406652933546959,-0.0528725108720531
0.012756542305638208,-0.05824368657969024
0.014435034714274816,-0.06462195773250935
0.015106431677729458,-0.06865033951323721
0.011749446860456245,-0.06865033951323721
0.012420843823910887,-0.06529335469596398
0.008392462043183033,-0.06730754558632791
0.0016784924086366065,-0.06831464103150987
0.002014190890363927,-0.06092927443350881
0.0003356984817273213,-0.051865415426871134
-0.0016784924086366065,-0.04682993820096131
-0.002014190890363927,-0.04682993820096131
0.0016784924086366065,-0.04548714427405204
0.006378271152819104,-0.04213015945677882
0.007721065079728388,-0.037094682230869
0.007721065079728388,-0.026352330815594724
0.0157778286411841,-0.017624170290684367
0.0157778286411841,-0.014938582436865796
0.011749446860456245,-0.019302662699320974
0.010406652933546959,-0.020645456626230255
0.0050354772259098195,-0.013931486991683832
0.0023498893720912484,-0.004867627985046159
0.0010070954451819635,0.003860532539864194
0.010406652933546959,0.008560311284046692
0.017120622568093383,0.007217517357137408
0.012420843823910887,0.0035248340581368735
0.009063859006637675,0.0011749446860456242
0.003692683299000534,-0.0008392462043183033
-0.0003356984817273213,-0.006881818875410085
0.0006713969634546426,-0.01896696421759365
0.002014190890363927,-0.028030823224231328
-0.0003356984817273213,-0.028366521705958644
0.0010070954451819635,-0.02366674296177615
0.0050354772259098195,-0.02366674296177615
-0.0003356984817273213,-0.027695124742504008
-0.0030212863355458916,-0.033066300450141146
-0.0016784924086366065,-0.040451667048142216
0.006378271152819104,-0.044480048828870064
0.011078049897001601,-0.05119401846341649
0.017120622568093383,-0.05790798809796292
0.013092240787365528,-0.06260776684214542
0.016449225604638743,-0.06680399786373693
0.021820401312275882,-0.07066453040360113
0.01846341649500267,-0.07469291218432898
0.013092240787365528,-0.07838559548332952
0.012756542305638208,-0.08342107270923933
0.010406652933546959,-0.08274967574578469
0.013092240787365528,-0.07469291218432898
0.010406652933546959,-0.06529335469596398
0.006378271152819104,-0.05790798809796292
0.003356984817273213,-0.054551003280689715
-0.005706874189364461,-0.050522621499961846
-0.020477607385366595,-0.04716563668268864
-0.022491798275730522,-0.04313725490196078
-0.011749446860456245,-0.035416189822232394
-0.006378271152819104,-0.024505989166094453
-0.0003356984817273213,-0.020309758144502935
0.004699778744182497,-0.02366674296177615
0.011749446860456245,-0.024338139925230793
0.01376363775082017,-0.018631265735866327
0.01846341649500267,-0.011078049897001601
0.0157778286411841,-0.007217517357137408
0.01846341649500267,-0.006210421911955443
0.021149004348821242,-0.003860532539864194
0.021820401312275882,0.003189135576409552
0.02652018005645838,0.00788891432059205
0.022491798275730522,0.0052033264667734795
0.017792019531548024,-0.0005035477225909818
0.008392462043183033,-0.0055390249485008005
-0.005706874189364461,-0.010574502174410621
-0.012420843823910887,-0.01376363775082017
-0.009063859006637675,-0.014435034714274816
-0.0030212863355458916,-0.014267185473411156
0.0023498893720912484,-0.01594567788204776
-0.0003356984817273213,-0.019638361181048294
-0.002014190890363927,-0.026352330815594724
-0.0013427939269092851,-0.03407339589532311
-0.0050354772259098195,-0.03776607919432364
-0.005706874189364461,-0.04078736552986953
0.0023498893720912484,-0.04750133516441596
0.01376363775082017,-0.05589379720759898
0.012756542305638208,-0.060593575951781484
0.013092240787365528,-0.06529335469596398
0.012420843823910887,-0.07133592736705577
0.011749446860456245,-0.07872129396505684
0.019806210421911954,-0.08039978637369342
0.017792019531548024,-0.07402151522087433
0.01376363775082017,-0.06529335469596398
0.015106431677729458,-0.059250782024872196
0.007049668116273747,-0.0528725108720531
-0.0016784924086366065,-0.043808651865415424
-0.0023498893720912484,-0.03508049134050507
0.0016784924086366065,-0.0323949034866865
0.009063859006637675,-0.033066300450141146
0.007721065079728388,-0.030884260318913552
-0.0016784924086366065,-0.029037918669413288
0.0023498893720912484,-0.027023727779049357
0.011749446860456245,-0.020981155107957578
0.012756542305638208,-0.01326009002822919
0.011749446860456245,-0.009063859006637675
0.010406652933546959,-0.008560311284046692
0.008392462043183033,-0.006210421911955443
0.0010070954451819635,-0.0028534370946822307
0.004699778744182497,-0.0015106431677729458
0.014435034714274816,0.001846341649500267
0.01376363775082017,0.0015106431677729458
0.017120622568093383,-0.001846341649500267
0.012420843823910887,-0.010238803692683297
0.006378271152819104,-0.020309758144502935
0.0030212863355458916,-0.027023727779049357
0.0010070954451819635,-0.027695124742504008
-0.0010070954451819635,-0.027695124742504008
-0.005706874189364461,-0.029709315632867935
-0.004364080262455177,-0.03189135576409552
-0.0016784924086366065,-0.03675898374914168
-0.0003356984817273213,-0.04078736552986953
-0.005706874189364461,-0.043808651865415424
-0.009735255970092317,-0.044815747310597384
-0.006713969634546426,-0.044647898069733724
-0.003692683299000534,-0.053208209353780414
0.003692683299000534,-0.06663614862287326
0.007721065079728388,-0.07066453040360113
0.010406652933546959,-0.06797894254978255
0.0157778286411841,-0.06797894254978255
0.01376363775082017,-0.07267872129396505
0.017120622568093383,-0.07905699244678416
0.02349889372091249,-0.07939269092851148
0.023834592202639806,-0.07234302281223774
0.019806210421911954,-0.060090028229190504
0.015106431677729458,-0.05253681239032577
0.007049668116273747,-0.049851224536507206
-0.004364080262455177,-0.04750133516441596
-0.005706874189364461,-0.04582284275577936
-0.003692683299000534,-0.04313725490196078
-0.0030212863355458916,-0.0387731746395056
-0.0016784924086366065,-0.03172350652323186
-0.0003356984817273213,-0.022323949034866862
-0.005706874189364461,-0.01594567788204776
-0.0050354772259098195,-0.011581597619592583
0.0003356984817273213,-0.009567406729228655
0.0050354772259098195,-0.006881818875410085
0.013092240787365528,-0.0028534370946822307
0.008392462043183033,0.0011749446860456242
0.007049668116273747,0.0035248340581368735
0.011078049897001601,0.003860532539864194
0.0157778286411841,0.0025177386129549098
0.021149004348821242,-0.0021820401312275884
0.02349889372091249,-0.010910200656137941
0.021149004348821242,-0.019638361181048294
0.022491798275730522,-0.0260166323338674
0.02652018005645838,-0.029709315632867935
0.017792019531548024,-0.03105210955977722
-0.004364080262455177,-0.03172350652323186
-0.011749446860456245,-0.032730601968413826
-0.010406652933546959,-0.0323949034866865
0.0050354772259098195,-0.033066300450141146
0.007721065079728388,-0.035751888303959714
0.0050354772259098195,-0.044647898069733724
0.004699778744182497,-0.0528725108720531
-0.006378271152819104,-0.05824368657969024
-0.017120622568093383,-0.06126497291523613
-0.012420843823910887,-0.0639505607690547
-0.0010070954451819635,-0.06697184710460058
-0.0003356984817273213,-0.07183947508964675
0.003692683299000534,-0.07637140459296558
0.009735255970092317,-0.074189364461738
0.010406652933546959,-0.06663614862287326
0.0157778286411841,-0.05555809872587166
0.017120622568093383,-0.048508430609597926
0.01913481345845731,-0.04582284275577936
0.01846341649500267,-0.041123064011596856
0.013092240787365528,-0.03910887312123293
0.015106431677729458,-0.03659113450827802
0.008728160524910353,-0.03256275272755016
0.0016784924086366065,-0.027023727779049357
-0.0003356984817273213,-0.022995345998321506
0.0016784924086366065,-0.019806210421911954
0.006378271152819104,-0.014938582436865796
0.0010070954451819635,-0.010910200656137941
-0.006378271152819104,-0.006210421911955443
-0.004364080262455177,0.0008392462043183033
0.003356984817273213,0.008560311284046692
0.006378271152819104,0.011917296101319903
0.01376363775082017,0.009231708247501335
0.017792019531548024,0.003189135576409552
0.016449225604638743,-0.0015106431677729458
0.019806210421911954,-0.006210421911955443
0.01846341649500267,-0.011581597619592583
0.01846341649500267,-0.019638361181048294
0.020813305867093918,-0.03054856183718624
0.021149004348821242,-0.03743038071259632
0.017792019531548024,-0.03659113450827802
0.017120622568093383,-0.03105210955977722
0.0157778286411841,-0.03172350652323186
0.010406652933546959,-0.03810177767605096
-0.005706874189364461,-0.043808651865415424
-0.023163195239185166,-0.04716563668268864
-0.024505989166094453,-0.0481727321278706
-0.01376363775082017,-0.050186923018234526
-0.0030212863355458916,-0.05656519417105363
0.0030212863355458916,-0.060593575951781484
-0.0016784924086366065,-0.06126497291523613
-0.0016784924086366065,-0.06126497291523613
-0.0003356984817273213,-0.06495765621423667
-0.0016784924086366065,-0.06999313344014649
0.003356984817273213,-0.07167162584878309
0.007721065079728388,-0.0639505607690547
0.010070954451819639,-0.051529716945143814
0.009063859006637675,-0.0426337071793698
0.01376363775082017,-0.03978027008468757
0.0157778286411841,-0.041794460975051496
0.012420843823910887,-0.04515144579232471
0.014435034714274816,-0.04515144579232471
0.016784924086366067,-0.04213015945677882
0.0157778286411841,-0.037262531471732654
0.010406652933546959,-0.03138780804150454
0.005706874189364461,-0.024505989166094453
0.0030212863355458916,-0.017120622568093383
0.0003356984817273213,-0.008560311284046692
0.0023498893720912484,-0.0005035477225909818
0.0023498893720912484,0.003860532539864194
0.002014190890363927,0.0021820401312275884
-0.0003356984817273213,-0.0025177386129549098
-0.007049668116273747,-0.003189135576409552
-0.005706874189364461,0.0005035477225909818
0.003692683299000534,-0.0010070954451819635
0.011078049897001601,-0.009567406729228655
0.01376363775082017,-0.019302662699320974
0.016449225604638743,-0.029709315632867935
0.019806210421911954,-0.036423285267414354
0.017792019531548024,-0.03675898374914168
0.01846341649500267,-0.03608758678568704
0.019470511940184634,-0.03776607919432364
0.0157778286411841,-0.03910887312123293
0.013092240787365528,-0.03810177767605096
0.006378271152819104,-0.040451667048142216
0.0023498893720912484,-0.04716563668268864
0.005706874189364461,-0.054551003280689715
0.0023498893720912484,-0.060593575951781484
-0.0023498893720912484,-0.06361486228732739
0.0003356984817273213,-0.06730754558632791
0.006713969634546426,-0.07133592736705577
0.010406652933546959,-0.07737850003814756
0.007721065079728388,-0.0844281681544213
0.008728160524910353,-0.0861066605630579
0.007049668116273747,-0.0780498970016022
0.0016784924086366065,-0.06596475165941862
-0.007721065079728388,-0.06109712367437248
-0.0050354772259098195,-0.059250782024872196
0.0050354772259098195,-0.05354390783550774
0.017792019531548024,-0.04615854123750667
0.02652018005645838,-0.03776607919432364
0.025177386129549097,-0.033066300450141146
0.02349889372091249,-0.036423285267414354
0.021820401312275882,-0.03810177767605096
0.017120622568093383,-0.032730601968413826
0.0010070954451819635,-0.019302662699320974
-0.010406652933546959,-0.006881818875410085
-0.014435034714274816,-0.0008392462043183033
-0.016449225604638743,-0.00016784924086366064
-0.015106431677729458,-0.001846341649500267
-0.009063859006637675,-0.0008392462043183033
-0.011078049897001601,-0.0028534370946822307
-0.01376363775082017,-0.006042572671091783
-0.008392462043183033,-0.004196231021591517
-0.007049668116273747,-0.0035248340581368735
0.0023498893720912484,-0.009567406729228655
0.011078049897001601,-0.020645456626230255
0.01846341649500267,-0.029037918669413288
0.022491798275730522,-0.03373769741359579
0.021149004348821242,-0.03373769741359579
0.02652018005645838,-0.025345235370412753
0.02719157701991302,-0.019638361181048294
0.024505989166094453,-0.024505989166094453
0.023834592202639806,-0.035416189822232394
0.0157778286411841,-0.04649423971923399
-0.0003356984817273213,-0.05622949568932631
-0.009735255970092317,-0.061936369878690785
-0.006378271152819104,-0.06210421911955444
-0.003356984817273213,-0.06327916380560006
-0.0016784924086366065,-0.06865033951323721
-0.0003356984817273213,-0.07402151522087433
0.0016784924086366065,-0.0797283894102388
0.0003356984817273213,-0.08107118333714809
0.0010070954451819635,-0.07536430914778362
-0.0030212863355458916,-0.06730754558632791
0.0023498893720912484,-0.060593575951781484
0.0030212863355458916,-0.05522240024414436
0.010406652933546959,-0.04582284275577936
0.013092240787365528,-0.036423285267414354
0.0157778286411841,-0.03256275272755016
0.021149004348821242,-0.0323949034866865
0.019806210421911954,-0.036423285267414354
0.017120622568093383,-0.03860532539864195
0.011078049897001601,-0.035751888303959714
0.010406652933546959,-0.027695124742504008
0.011749446860456245,-0.017959868772411687
0.0157778286411841,-0.010238803692683297
0.019806210421911954,-0.004196231021591517
0.017792019531548024,-0.00016784924086366064
0.009063859006637675,0.003860532539864194
-0.0030212863355458916,0.0052033264667734795
-0.009735255970092317,0.0055390249485008005
-0.007385366598001068,0.004364080262455177
-0.006378271152819104,-0.0003356984817273213
-0.005706874189364461,-0.006210421911955443
-0.007721065079728388,-0.012588693064774548
-0.011413748378728923,-0.01695277332722972
-0.005706874189364461,-0.022323949034866862
-0.0016784924086366065,-0.027023727779049357
0.0023498893720912484,-0.030045014114595252
0.012420843823910887,-0.029037918669413288
0.01846341649500267,-0.029709315632867935
0.01846341649500267,-0.03172350652323186
0.01913481345845731,-0.03205920500495917
0.017120622568093383,-0.03440909437705043
0.020477607385366595,-0.04313725490196078
0.021820401312275882,-0.05656519417105363
0.01846341649500267,-0.061936369878690785
0.009063859006637675,-0.05958648050659952
0.002014190890363927,-0.05337605859464408
-0.003356984817273213,-0.05421530479896238
-0.004364080262455177,-0.0639505607690547
-0.005706874189364461,-0.07100022888532845
-0.010070954451819639,-0.06898603799496453
-0.007049668116273747,-0.06126497291523613
-0.003692683299000534,-0.05589379720759898
-0.0030212863355458916,-0.04917982757305257
-0.0003356984817273213,-0.041794460975051496
0.003692683299000534,-0.0379339284351873
0.010406652933546959,-0.03508049134050507
0.013092240787365528,-0.036423285267414354
0.015442130159456776,-0.03978027008468757
0.017792019531548024,-0.03776607919432364
0.020477607385366595,-0.027359426260776684
0.023834592202639806,-0.01628137636377508
0.023163195239185166,-0.011078049897001601
0.015106431677729458,-0.008560311284046692
0.010406652933546959,-0.003189135576409552
0.006378271152819104,-0.0008392462043183033
0.007049668116273747,-0.0016784924086366065
0.003692683299000534,-0.001846341649500267
0.0030212863355458916,-0.0015106431677729458
0.003692683299000534,-0.0015106431677729458
-0.0003356984817273213,-0.0028534370946822307
-0.008392462043183033,-0.008392462043183033
-0.011749446860456245,-0.013427939269092852
-0.011749446860456245,-0.017624170290684367
-0.007721065079728388,-0.02265964751659419
-0.006378271152819104,-0.028366521705958644
-0.0010070954451819635,-0.03407339589532311
0.0050354772259098195,-0.035751888303959714
0.010406652933546959,-0.03105210955977722
0.021820401312275882,-0.027695124742504008
0.02853437094682231,-0.0323949034866865
0.022491798275730522,-0.03978027008468757
0.011749446860456245,-0.04917982757305257
0.0157778286411841,-0.05992217898832684
0.015106431677729458,-0.0694895857175555
0.011078049897001601,-0.07234302281223774
0.015442130159456776,-0.07083237964446479
0.0157778286411841,-0.07402151522087433
0.014099336232547494,-0.08207827878233005
0.010406652933546959,-0.0861066605630579
-0.0030212863355458916,-0.07838559548332952
-0.008728160524910353,-0.06546120393682765
-0.014435034714274816,-0.054551003280689715
-0.020477607385366595,-0.04783703364614328
-0.01376363775082017,-0.0426337071793698
-0.0030212863355458916,-0.03373769741359579
0.006378271152819104,-0.024673838406958113
0.013092240787365528,-0.024673838406958113
0.015106431677729458,-0.030380712596322572
0.0157778286411841,-0.029709315632867935
0.019806210421911954,-0.020981155107957578
0.023834592202639806,-0.014602883955138474
0.025177386129549097,-0.010238803692683297
0.02584878309300374,-0.007553215838864729
0.019806210421911954,-0.008224612802319372
0.009735255970092317,-0.008224612802319372
-0.0030212863355458916,-0.007553215838864729
-0.015106431677729458,-0.008224612802319372
-0.011078049897001601,-0.009231708247501335
0.0010070954451819635,-0.01359578850995651
-0.0010070954451819635,-0.020309758144502935
-0.0030212863355458916,-0.02366674296177615
-0.004699778744182497,-0.024338139925230793
-0.004364080262455177,-0.023834592202639806
-0.0010070954451819635,-0.025680933852140077
0.0016784924086366065,-0.027359426260776684
0.0023498893720912484,-0.0260166323338674
-0.002014190890363927,-0.022491798275730522
-0.002014190890363927,-0.025345235370412753
0.0010070954451819635,-0.03440909437705043
0.007049668116273747,-0.043808651865415424
0.016449225604638743,-0.05119401846341649
0.022491798275730522,-0.057236591134508276
0.021820401312275882,-0.06344701304646372
0.021149004348821242,-0.06630045014114595
0.02652018005645838,-0.06411841000991834
0.025177386129549097,-0.06126497291523613
0.025177386129549097,-0.0639505607690547
0.024505989166094453,-0.06965743495841917
0.0157778286411841,-0.0703288319218738
0.0050354772259098195,-0.0639505607690547
0.005706874189364461,-0.056397344930189976
0.0050354772259098195,-0.04716563668268864
-0.0023498893720912484,-0.041794460975051496
-0.004364080262455177,-0.041794460975051496
-0.004364080262455177,-0.04078736552986953
-0.007721065079728388,-0.03843747615777828
-0.0003356984817273213,-0.03508049134050507
0.0050354772259098195,-0.0323949034866865
0.0023498893720912484,-0.033066300450141146
0.002014190890363927,-0.03189135576409552
0.003692683299000534,-0.024673838406958113
0.0010070954451819635,-0.011078049897001601
0.006378271152819104,-0.0015106431677729458
0.01376363775082017,-0.00016784924086366064
0.01846341649500267,-0.0015106431677729458
0.019806210421911954,-0.003860532539864194
0.016449225604638743,-0.006881818875410085
0.014099336232547494,-0.009903105210955977
0.007721065079728388,-0.010574502174410621
0.007721065079728388,-0.012588693064774548
0.0050354772259098195,-0.017624170290684367
-0.0003356984817273213,-0.022995345998321506
-0.004364080262455177,-0.029709315632867935
-0.004364080262455177,-0.037094682230869
-0.008392462043183033,-0.03910887312123293
-0.0030212863355458916,-0.03474479285877775
-0.0006713969634546426,-0.03172350652323186
-0.006378271152819104,-0.033401998931868467
-0.008728160524910353,-0.03508049134050507
-0.009063859006637675,-0.042465857938506144
-0.005706874189364461,-0.053208209353780414
0.007721065079728388,-0.05857938506141757
0.016449225604638743,-0.05992217898832684
0.0157778286411841,-0.062272068360418105
0.0157778286411841,-0.06730754558632791
0.0157778286411841,-0.07402151522087433
0.011413748378728923,-0.07872129396505684
0.013092240787365528,-0.0767071030746929
0.01846341649500267,-0.06747539482719157
0.019806210421911954,-0.05992217898832684
0.016449225604638743,-0.05857938506141757
-0.0003356984817273213,-0.058915083543144876
-0.016449225604638743,-0.054551003280689715
-0.012420843823910887,-0.043808651865415424
-0.006378271152819104,-0.03373769741359579
-0.0030212863355458916,-0.02668802929732204
-0.0030212863355458916,-0.02366674296177615
0.0016784924086366065,-0.025680933852140077
0.0010070954451819635,-0.02400244144350347
0.0023498893720912484,-0.017624170290684367
0.004364080262455177,-0.008896009765774012
0.007049668116273747,-0.0008392462043183033
0.013092240787365528,0.007217517357137408
0.017792019531548024,0.012252994583047227
0.022491798275730522,0.008896009765774012
0.021820401312275882,0.004531929503318838
0.021149004348821242,0.0028534370946822307
0.022156099794003202,0.0011749446860456242
0.023163195239185166,-0.003189135576409552
0.015106431677729458,-0.009231708247501335
0.01376363775082017,-0.014938582436865796
0.012420843823910887,-0.021149004348821242
0.003692683299000534,-0.027695124742504008
-0.008392462043183033,-0.03373769741359579
-0.011078049897001601,-0.036423285267414354
-0.005706874189364461,-0.037094682230869
-0.0006713969634546426,-0.03994811932555123
0.0023498893720912484,-0.041794460975051496
0.0010070954451819635,-0.041794460975051496
0.004699778744182497,-0.044480048828870064
0.0050354772259098195,-0.05119401846341649
0.007721065079728388,-0.058075837338826576
0.006042572671091783,-0.06529335469596398
0.0050354772259098195,-0.0703288319218738
0.0023498893720912484,-0.07435721370260165
0.0050354772259098195,-0.07687495231555656
0.009063859006637675,-0.07267872129396505
0.010406652933546959,-0.06562905317769131
0.016449225604638743,-0.059250782024872196
0.01846341649500267,-0.057236591134508276
0.011749446860456245,-0.05387960631723506
0.009063859006637675,-0.04515144579232471
0.009063859006637675,-0.03508049134050507
0.006378271152819104,-0.028030823224231328
0.0023498893720912484,-0.025680933852140077
0.0010070954451819635,-0.02668802929732204
-0.0010070954451819635,-0.027359426260776684
-0.005706874189364461,-0.027695124742504008
-0.005706874189364461,-0.0260166323338674
0.004364080262455177,-0.021652552071412222
0.010070954451819639,-0.01359578850995651
0.011749446860456245,-0.004531929503318838
0.017120622568093383,0.0008392462043183033
0.008728160524910353,-0.00016784924086366064
-0.0030212863355458916,-0.004196231021591517
0.0023498893720912484,-0.006378271152819104
0.010406652933546959,-0.004867627985046159
0.007721065079728388,-0.006881818875410085
0.009063859006637675,-0.01359578850995651
0.008392462043183033,-0.019638361181048294
0.010406652933546959,-0.022995345998321506
0.009735255970092317,-0.025345235370412753
0.008392462043183033,-0.029709315632867935
0.004699778744182497,-0.03440909437705043
-0.0016784924086366065,-0.03843747615777828
-0.0050354772259098195,-0.041794460975051496
-0.009063859006637675,-0.04414435034714275
-0.0030212863355458916,-0.04783703364614328
0.0023498893720912484,-0.05387960631723506
0.0050354772259098195,-0.05857938506141757
0.0050354772259098195,-0.060593575951781484
0.0023498893720912484,-0.06747539482719157
0.0023498893720912484,-0.07637140459296558
0.0030212863355458916,-0.07939269092851148
0.0016784924086366065,-0.0780498970016022
0.0023498893720912484,-0.07167162584878309
0.011749446860456245,-0.06462195773250935
0.025177386129549097,-0.05857938506141757
0.025177386129549097,-0.05522240024414436
0.022491798275730522,-0.050522621499961846
0.017120622568093383,-0.04649423971923399
0.01846341649500267,-0.043808651865415424
0.0157778286411841,-0.041794460975051496
0.011749446860456245,-0.041962310215915156
0.013092240787365528,-0.042465857938506144
0.013092240787365528,-0.041794460975051496
0.011749446860456245,-0.03927672236209659
0.0050354772259098195,-0.03474479285877775
-0.007049668116273747,-0.02366674296177615
-0.021149004348821242,-0.0055390249485008005
-0.01376363775082017,0.007049668116273747
-0.008392462043183033,0.010238803692683297
-0.009063859006637675,0.009231708247501335
-0.004364080262455177,0.00788891432059205
0.0023498893720912484,0.006210421911955443
0.0050354772259098195,0.001846341649500267
0.004364080262455177,-0.004531929503318838
0.009735255970092317,-0.010574502174410621
0.009735255970092317,-0.01359578850995651
0.006378271152819104,-0.014938582436865796
0.009063859006637675,-0.021652552071412222
0.016449225604638743,-0.03105210955977722
0.01913481345845731,-0.033066300450141146
0.017120622568093383,-0.03172350652323186
0.0157778286411841,-0.0323949034866865
0.0157778286411841,-0.03843747615777828
0.009063859006637675,-0.04313725490196078
0.0023498893720912484,-0.04649423971923399
0.003692683299000534,-0.053208209353780414
0.0003356984817273213,-0.06562905317769131
-0.003692683299000534,-0.07838559548332952
-0.0003356984817273213,-0.08140688181887541
-0.002014190890363927,-0.08174258030060273
0.0010070954451819635,-0.0800640878919661
0.007049668116273747,-0.0775463492790112
0.010070954451819639,-0.07402151522087433
0.008728160524910353,-0.0694895857175555
0.009735255970092317,-0.06428625925078202
0.014435034714274816,-0.056900892652780956
0.014435034714274816,-0.051361867704280154
0.016784924086366067,-0.04649423971923399
0.01846341649500267,-0.03843747615777828
0.020477607385366595,-0.030380712596322572
0.017120622568093383,-0.027023727779049357
0.01846341649500267,-0.026352330815594724
0.014435034714274816,-0.024673838406958113
0.003692683299000534,-0.02265964751659419
-0.005706874189364461,-0.021652552071412222
-0.009735255970092317,-0.019638361181048294
-0.007721065079728388,-0.012252994583047227
-0.0016784924086366065,-0.0015106431677729458
-0.0030212863355458916,0.009903105210955977
-0.007049668116273747,0.01594567788204776
-0.006713969634546426,0.014938582436865796
-0.0050354772259098195,0.011917296101319903
0.0023498893720912484,0.006546120393682764
0.009063859006637675,0.0005035477225909818
0.010070954451819639,-0.008224612802319372
0.014099336232547494,-0.014267185473411156
0.020477607385366595,-0.017624170290684367
0.021820401312275882,-0.021652552071412222
0.021149004348821242,-0.028702220187685965
0.016449225604638743,-0.03407339589532311
0.016449225604638743,-0.03172350652323186
0.014099336232547494,-0.0260166323338674
0.010070954451819639,-0.02668802929732204
0.0023498893720912484,-0.03440909437705043
0.004699778744182497,-0.04313725490196078
0.005706874189364461,-0.04783703364614328
-0.003692683299000534,-0.05337605859464408
-0.007049668116273747,-0.060593575951781484
-0.004364080262455177,-0.06596475165941862
0.0050354772259098195,-0.06881818875410085
0.010406652933546959,-0.06898603799496453
0.007721065079728388,-0.06562905317769131
0.007721065079728388,-0.0639505607690547
-0.0030212863355458916,-0.061936369878690785
-0.02349889372091249,-0.05673304341191729
-0.02584878309300374,-0.051529716945143814
-0.007721065079728388,-0.04615854123750667
0.009735255970092317,-0.042465857938506144
0.01846341649500267,-0.03776607919432364
0.025177386129549097,-0.03743038071259632
0.023163195239185166,-0.03675898374914168
0.019806210421911954,-0.03474479285877775
0.009735255970092317,-0.03373769741359579
0.003692683299000534,-0.032730601968413826
0.007721065079728388,-0.03121995880064088
-0.007049668116273747,-0.027695124742504008
-0.008392462043183033,-0.01829556725413901
0.0010070954451819635,-0.0035248340581368735
0.0050354772259098195,0.0052033264667734795
0.0050354772259098195,0.006881818875410085
0.003692683299000534,0.003860532539864194
0.0050354772259098195,-0.004196231021591517
0.0016784924086366065,-0.014267185473411156
0.0023498893720912484,-0.020309758144502935
-0.0003356984817273213,-0.020477607385366595
0.0050354772259098195,-0.019302662699320974
0.010406652933546959,-0.02366674296177615
0.014435034714274816,-0.027695124742504008
0.0157778286411841,-0.029037918669413288
0.017792019531548024,-0.029205767910276948
0.019470511940184634,-0.03054856183718624
0.01846341649500267,-0.029709315632867935
0.019806210421911954,-0.0323949034866865
0.022156099794003202,-0.040451667048142216
0.022491798275730522,-0.051529716945143814
0.011413748378728923,-0.060593575951781484
0.003692683299000534,-0.06613260090028229
0.0050354772259098195,-0.06630045014114595
0.0030212863355458916,-0.06747539482719157
-0.005706874189364461,-0.0750286106660563
-0.008392462043183033,-0.07872129396505684
-0.005706874189364461,-0.07553215838864728
-0.004699778744182497,-0.06596475165941862
-0.004364080262455177,-0.05589379720759898
-0.005706874189364461,-0.04917982757305257
-0.003692683299000534,-0.04750133516441596
0.0023498893720912484,-0.049515526054779886
0.004364080262455177,-0.04917982757305257
0.008392462043183033,-0.04582284275577936
0.017120622568093383,-0.03910887312123293
0.0157778286411841,-0.0323949034866865
0.01846341649500267,-0.027023727779049357
0.020477607385366595,-0.025680933852140077
0.019806210421911954,-0.02668802929732204
0.019806210421911954,-0.022995345998321506
0.021820401312275882,-0.013931486991683832
0.020477607385366595,-0.0028534370946822307
0.011749446860456245,0.003860532539864194
0.006378271152819104,0.005874723430228122
0.003692683299000534,0.007217517357137408
-0.003692683299000534,0.0025177386129549098
-0.011749446860456245,-0.007553215838864729
-0.007049668116273747,-0.015106431677729458
-0.008392462043183033,-0.01695277332722972
-0.0030212863355458916,-0.01695277332722972
-0.0030212863355458916,-0.019638361181048294
0.0003356984817273213,-0.024673838406958113
0.003692683299000534,-0.02719157701991302
0.003692683299000534,-0.030380712596322572
0.011749446860456245,-0.033066300450141146
0.014435034714274816,-0.03407339589532311
0.0157778286411841,-0.03692683299000534
0.0157778286411841,-0.04129091325246051
0.009735255970092317,-0.04699778744182498
0.010406652933546959,-0.05119401846341649
0.013092240787365528,-0.0520332646677348
0.014435034714274816,-0.05354390783550774
0.014435034714274816,-0.05656519417105363
0.010406652933546959,-0.06663614862287326
0.0023498893720912484,-0.0780498970016022
-0.0023498893720912484,-0.08476386663614863
-0.0003356984817273213,-0.0800640878919661
-0.0010070954451819635,-0.06680399786373693
-0.0030212863355458916,-0.054551003280689715
-0.0016784924086366065,-0.05119401846341649
0.0003356984817273213,-0.05387960631723506
-0.0003356984817273213,-0.0528725108720531
-0.006378271152819104,-0.04682993820096131
-0.0030212863355458916,-0.03944457160296025
0.005706874189364461,-0.03373769741359579
0.013092240787365528,-0.028702220187685965
0.01846341649500267,-0.025009536888685433
0.023163195239185166,-0.024338139925230793
0.02719157701991302,-0.022323949034866862
0.03189135576409552,-0.01560997940032044
0.027862973983367664,-0.004867627985046159
0.025177386129549097,0.004531929503318838
0.02719157701991302,0.011245899137865261
0.022491798275730522,0.014602883955138474
0.008392462043183033,0.012588693064774548
-0.015106431677729458,0.008224612802319372
-0.033234149691004806,0.0021820401312275884
-0.029205767910276948,-0.008224612802319372
-0.017792019531548024,-0.020309758144502935
-0.016449225604638743,-0.027023727779049357
-0.014435034714274816,-0.029037918669413288
-0.008392462043183033,-0.028702220187685965
-0.007385366598001068,-0.029709315632867935
-0.0030212863355458916,-0.03138780804150454
0.003692683299000534,-0.036423285267414354
0.012420843823910887,-0.04582284275577936
0.01846341649500267,-0.049851224536507206
0.021149004348821242,-0.050186923018234526
0.021149004348821242,-0.05253681239032577
0.023834592202639806,-0.057236591134508276
0.019806210421911954,-0.061936369878690785
0.014099336232547494,-0.06596475165941862
0.021149004348821242,-0.07167162584878309
0.023834592202639806,-0.0767071030746929
0.017792019531548024,-0.0800640878919661
0.01812771801327535,-0.0797283894102388
0.011749446860456245,-0.07536430914778362
0.0023498893720912484,-0.06831464103150987
-0.002014190890363927,-0.058915083543144876
-0.005706874189364461,-0.05522240024414436
-0.007049668116273747,-0.05488670176241703
-0.009735255970092317,-0.051361867704280154
-0.005706874189364461,-0.043472953383688104
-0.0010070954451819635,-0.035416189822232394
0.0023498893720912484,-0.030045014114595252
0.0050354772259098195,-0.0260166323338674
0.007721065079728388,-0.022995345998321506
0.006042572671091783,-0.019302662699320974
0.002014190890363927,-0.012588693064774548
0.003692683299000534,-0.006881818875410085
0.011749446860456245,-0.0035248340581368735
0.0157778286411841,0.00016784924086366064
0.023163195239185166,0.0028534370946822307
0.021149004348821242,0.0052033264667734795
0.017120622568093383,0.008560311284046692
0.017792019531548024,0.006546120393682764
0.019806210421911954,-0.0028534370946822307
0.020477607385366595,-0.01628137636377508
0.006378271152819104,-0.025680933852140077
-0.008392462043183033,-0.029709315632867935
-0.014435034714274816,-0.03105210955977722
-0.013092240787365528,-0.02937361715114061
-0.011078049897001601,-0.029037918669413288
-0.0030212863355458916,-0.03172350652323186
0.0010070954451819635,-0.035751888303959714
-0.0023498893720912484,-0.03776607919432364
0.0023498893720912484,-0.040451667048142216
0.004364080262455177,-0.04531929503318838
0.009735255970092317,-0.05253681239032577
0.013092240787365528,-0.060593575951781484
0.011413748378728923,-0.06529335469596398
0.013092240787365528,-0.06764324406805522
0.014435034714274816,-0.06999313344014649
0.019806210421911954,-0.07402151522087433
0.016784924086366067,-0.0750286106660563
0.0157778286411841,-0.06999313344014649
0.01846341649500267,-0.06160067139696345
0.014770733196002136,-0.050186923018234526
0.009735255970092317,-0.04011596856641489
0.0030212863355458916,-0.037094682230869
-0.010070954451819639,-0.03440909437705043
-0.019806210421911954,-0.0323949034866865
-0.016449225604638743,-0.03256275272755016
-0.01376363775082017,-0.029709315632867935
-0.011749446860456245,-0.026352330815594724
-0.008392462043183033,-0.02366674296177615
-0.005706874189364461,-0.020645456626230255
0.003692683299000534,-0.01628137636377508
0.013092240787365528,-0.011245899137865261
0.01913481345845731,-0.005874723430228122
0.023834592202639806,-0.001846341649500267
0.022491798275730522,-0.001846341649500267
0.023834592202639806,0.0003356984817273213
0.02719157701991302,0.0025177386129549098
0.020477607385366595,0.003860532539864194
0.0157778286411841,-0.0005035477225909818
0.0157778286411841,-0.012588693064774548
0.017792019531548024,-0.022323949034866862
0.01913481345845731,-0.026352330815594724
0.006378271152819104,-0.024505989166094453
-0.0006713969634546426,-0.02333104448004883
-0.004699778744182497,-0.0260166323338674
-0.012756542305638208,-0.029709315632867935
-0.01376363775082017,-0.03407339589532311
-0.005706874189364461,-0.03944457160296025
-0.005706874189364461,-0.04582284275577936
-0.0003356984817273213,-0.05253681239032577
0.007049668116273747,-0.055390249485008015
0.006378271152819104,-0.05857938506141757
0.005706874189364461,-0.06260776684214542
0.008728160524910353,-0.06462195773250935
0.007721065079728388,-0.06730754558632791
0.009063859006637675,-0.07267872129396505
0.021820401312275882,-0.07771419851987486
0.020477607385366595,-0.07956054016937514
0.017120622568093383,-0.0780498970016022
0.017456321049820707,-0.07200732433051041
0.014435034714274816,-0.05992217898832684
0.012756542305638208,-0.04649423971923399
0.0157778286411841,-0.03608758678568704
0.015106431677729458,-0.0323949034866865
0.006378271152819104,-0.0323949034866865
-0.0016784924086366065,-0.03138780804150454
-0.01376363775082017,-0.033066300450141146
-0.017792019531548024,-0.03172350652323186
-0.007721065079728388,-0.027695124742504008
-0.0030212863355458916,-0.02333104448004883
-0.0030212863355458916,-0.017959868772411687
-0.0030212863355458916,-0.012252994583047227
-0.004364080262455177,-0.0050354772259098195
0.007049668116273747,-0.001846341649500267
0.007721065079728388,-0.0003356984817273213
0.003692683299000534,0.004196231021591517
0.007721065079728388,0.007217517357137408
0.0157778286411841,0.006210421911955443
0.01846341649500267,-0.0025177386129549098
0.01846341649500267,-0.01359578850995651
0.01846341649500267,-0.021820401312275882
0.015442130159456776,-0.027695124742504008
0.010406652933546959,-0.03121995880064088
0.010406652933546959,-0.033401998931868467
0.0050354772259098195,-0.03407339589532311
-0.0010070954451819635,-0.037094682230869
-0.003692683299000534,-0.03910887312123293
0.0023498893720912484,-0.03508049134050507
0.007721065079728388,-0.03373769741359579
0.003692683299000534,-0.042801556420233464
-0.0016784924086366065,-0.053208209353780414
-0.008392462043183033,-0.057572289616235596
-0.007049668116273747,-0.05589379720759898
0.002014190890363927,-0.05387960631723506
0.007721065079728388,-0.05622949568932631
0.014435034714274816,-0.06327916380560006
0.01846341649500267,-0.07335011825741969
0.01846341649500267,-0.0797283894102388
0.019806210421911954,-0.07603570611123828
0.019470511940184634,-0.061936369878690785
0.0157778286411841,-0.048508430609597926
0.0157778286411841,-0.04313725490196078
0.01846341649500267,-0.044480048828870064
0.015106431677729458,-0.04783703364614328
-0.0003356984817273213,-0.044480048828870064
-0.007049668116273747,-0.03843747615777828
-0.005706874189364461,-0.035248340581368734
-0.0016784924086366065,-0.035248340581368734
0.0010070954451819635,-0.033066300450141146
0.0016784924086366065,-0.021149004348821242
-0.0010070954451819635,-0.009903105210955977
-0.0010070954451819635,-0.007553215838864729
-0.0003356984817273213,-0.008896009765774012
0.0010070954451819635,-0.004531929503318838
-0.0016784924086366065,0.004364080262455177
0.0023498893720912484,0.010574502174410621
0.0050354772259098195,0.00788891432059205
0.011749446860456245,0.0015106431677729458
0.014435034714274816,-0.006210421911955443
0.01846341649500267,-0.014602883955138474
0.022156099794003202,-0.02265964751659419
0.019806210421911954,-0.03105210955977722
0.017792019531548024,-0.0323949034866865
0.0157778286411841,-0.033066300450141146
0.0157778286411841,-0.03608758678568704
0.012756542305638208,-0.03994811932555123
0.009399557488364994,-0.044480048828870064
-0.0016784924086366065,-0.0481727321278706
-0.011078049897001601,-0.051529716945143814
-0.013092240787365528,-0.053208209353780414
-0.007385366598001068,-0.05387960631723506
-0.009063859006637675,-0.05656519417105363
-0.007049668116273747,-0.06361486228732739
-0.003356984817273213,-0.07133592736705577
0.0010070954451819635,-0.07637140459296558
0.0023498893720912484,-0.0797283894102388
0.003356984817273213,-0.08073548485542076
0.012420843823910887,-0.07704280155642022
0.022491798275730522,-0.06596475165941862
0.021149004348821242,-0.051865415426871134
0.021149004348821242,-0.04599069199664301
0.021149004348821242,-0.043976501106279084
0.012420843823910887,-0.04078736552986953
0.011749446860456245,-0.03910887312123293
0.013092240787365528,-0.03860532539864195
0.009063859006637675,-0.03474479285877775
0.007049668116273747,-0.029037918669413288
0.003692683299000534,-0.025009536888685433
-0.0006713969634546426,-0.02400244144350347
-0.0050354772259098195,-0.020645456626230255
-0.0050354772259098195,-0.01292439154650187
-0.010406652933546959,-0.0023498893720912484
-0.007049668116273747,0.004867627985046159
-0.005706874189364461,0.006546120393682764
-0.0030212863355458916,0.009567406729228655
0.0050354772259098195,0.012588693064774548
0.005706874189364461,0.01326009002822919
0.009063859006637675,0.009903105210955977
0.01812771801327535,0.0025177386129549098
0.01913481345845731,-0.005874723430228122
0.015106431677729458,-0.01527428091859312
0.010070954451819639,-0.024338139925230793
0.013092240787365528,-0.0323949034866865
0.01846341649500267,-0.03373769741359579
0.0157778286411841,-0.03172350652323186
0.0157778286411841,-0.03054856183718624
0.011078049897001601,-0.03256275272755016
0.0003356984817273213,-0.0379339284351873
0.0016784924086366065,-0.044815747310597384
0.004364080262455177,-0.05354390783550774
0.0003356984817273213,-0.059250782024872196
-0.005706874189364461,-0.06327916380560006
-0.009735255970092317,-0.06764324406805522
-0.010406652933546959,-0.06965743495841917
-0.01376363775082017,-0.06999313344014649
-0.007721065079728388,-0.07267872129396505
0.0023498893720912484,-0.07435721370260165
0.0157778286411841,-0.0694895857175555
0.025177386129549097,-0.057236591134508276
0.033234149691004806,-0.04649423971923399
0.033234149691004806,-0.042465857938506144
0.023834592202639806,-0.040451667048142216
0.011749446860456245,-0.0387731746395056
0.0023498893720912484,-0.03675898374914168
0.007049668116273747,-0.03843747615777828
0.009735255970092317,-0.04213015945677882
0.0003356984817273213,-0.041123064011596856
-0.0003356984817273213,-0.03440909437705043
0.006378271152819104,-0.0213168535896849
0.003692683299000534,-0.008896009765774012
-0.0030212863355458916,-0.0028534370946822307
-0.008392462043183033,-0.00016784924086366064
-0.007049668116273747,0.003860532539864194
-0.0030212863355458916,0.009231708247501335
0.0003356984817273213,0.00788891432059205
0.004699778744182497,0.006546120393682764
0.004364080262455177,0.005706874189364461
0.004364080262455177,0.0003356984817273213
0.008392462043183033,-0.006546120393682764
0.009063859006637675,-0.014938582436865796
0.0023498893720912484,-0.021820401312275882
0.007049668116273747,-0.027359426260776684
0.01376363775082017,-0.03105210955977722
0.022156099794003202,-0.033401998931868467
0.023163195239185166,-0.03373769741359579
0.019806210421911954,-0.03373769741359579
0.019470511940184634,-0.03776607919432364
0.016449225604638743,-0.048508430609597926
0.01846341649500267,-0.059250782024872196
0.010406652933546959,-0.06260776684214542
0.004364080262455177,-0.059754329747463183
0.0023498893720912484,-0.05958648050659952
-0.005706874189364461,-0.06747539482719157
-0.007721065079728388,-0.0767071030746929
-0.007049668116273747,-0.07872129396505684
-0.009063859006637675,-0.07771419851987486
-0.008392462043183033,-0.0750286106660563
-0.0030212863355458916,-0.07234302281223774
0.0023498893720912484,-0.06781109330891888
0.006378271152819104,-0.05992217898832684
0.007721065079728388,-0.050019073777370866
0.0157778286411841,-0.04061951628900587
0.021820401312275882,-0.035751888303959714
0.023834592202639806,-0.03407339589532311
0.024505989166094453,-0.03373769741359579
0.021820401312275882,-0.03373769741359579
0.017792019531548024,-0.03440909437705043
0.01376363775082017,-0.032730601968413826
0.013092240787365528,-0.024841687647821773
0.010406652933546959,-0.01292439154650187
-0.0010070954451819635,-0.0015106431677729458
-0.004364080262455177,0.003860532539864194
-0.004364080262455177,0.0052033264667734795
-0.012420843823910887,0.003860532539864194
-0.014099336232547494,0.003860532539864194
-0.006378271152819104,0.0050354772259098195
0.0010070954451819635,0.0016784924086366065
-0.006378271152819104,-0.006546120393682764
-0.009735255970092317,-0.017624170290684367
-0.003692683299000534,-0.028030823224231328
0.0023498893720912484,-0.036423285267414354
0.005706874189364461,-0.040451667048142216
0.012756542305638208,-0.037094682230869
0.017120622568093383,-0.03256275272755016
0.019806210421911954,-0.033234149691004806
0.022491798275730522,-0.035248340581368734
0.021149004348821242,-0.040451667048142216
0.021149004348821242,-0.050186923018234526
0.01913481345845731,-0.05958648050659952
0.015442130159456776,-0.06797894254978255
0.011749446860456245,-0.07100022888532845
0.008392462043183033,-0.07200732433051041
0.010070954451819639,-0.07200732433051041
0.015106431677729458,-0.07402151522087433
0.010406652933546959,-0.07603570611123828
0.003356984817273213,-0.07402151522087433
-0.003692683299000534,-0.06932173647669183
-0.012420843823910887,-0.06025787747005417
-0.019470511940184634,-0.05253681239032577
-0.01913481345845731,-0.04414435034714275
-0.016449225604638743,-0.036423285267414354
-0.0016784924086366065,-0.033066300450141146
0.0050354772259098195,-0.03440909437705043
0.008728160524910353,-0.035751888303959714
0.01846341649500267,-0.033066300450141146
0.019806210421911954,-0.02937361715114061
0.017120622568093383,-0.024338139925230793
0.0157778286411841,-0.01628137636377508
0.011078049897001601,-0.008224612802319372
0.010406652933546959,-0.0025177386129549098
0.009063859006637675,0.0011749446860456242
0.010406652933546959,0.0025177386129549098
0.003692683299000534,0.0025177386129549098
-0.0003356984817273213,0.0025177386129549098
-0.0003356984817273213,0.006546120393682764
0.0016784924086366065,0.00788891432059205
-0.0003356984817273213,0.0011749446860456242
-0.0030212863355458916,-0.011581597619592583
-0.007721065079728388,-0.019302662699320974
-0.008392462043183033,-0.021652552071412222
-0.008392462043183033,-0.02333104448004883
-0.006042572671091783,-0.030380712596322572
0.007049668116273747,-0.035751888303959714
0.016449225604638743,-0.036423285267414354
0.021149004348821242,-0.033066300450141146
0.023163195239185166,-0.03172350652323186
0.020477607385366595,-0.03675898374914168
0.017120622568093383,-0.04615854123750667
0.010406652933546959,-0.05740444037537193
0.009063859006637675,-0.06495765621423667
0.011749446860456245,-0.0703288319218738
0.01913481345845731,-0.07133592736705577
0.014435034714274816,-0.06764324406805522
0.009063859006637675,-0.06462195773250935
0.007049668116273747,-0.06462195773250935
0.0016784924086366065,-0.06730754558632791
-0.007049668116273747,-0.06529335469596398
-0.004364080262455177,-0.060593575951781484
-0.007385366598001068,-0.054551003280689715
-0.0030212863355458916,-0.048508430609597926
0.0023498893720912484,-0.044480048828870064
0.006042572671091783,-0.03860532539864195
0.006378271152819104,-0.03508049134050507
0.0050354772259098195,-0.03508049134050507
0.007049668116273747,-0.03440909437705043
0.01376363775082017,-0.028366521705958644
0.029205767910276948,-0.019974059662775615
0.033234149691004806,-0.01359578850995651
0.023834592202639806,-0.009231708247501335
0.021149004348821242,-0.004196231021591517
0.013092240787365528,0.0025177386129549098
-0.002014190890363927,0.006210421911955443
-0.011078049897001601,0.004867627985046159
-0.004364080262455177,-0.0028534370946822307
0.0006713969634546426,-0.010574502174410621
-0.0050354772259098195,-0.01560997940032044
-0.007049668116273747,-0.017288471808957043
-0.009735255970092317,-0.016617074845502403
-0.008392462043183033,-0.01896696421759365
-0.011078049897001601,-0.024338139925230793
-0.012420843823910887,-0.027023727779049357
-0.005706874189364461,-0.027023727779049357
-0.004364080262455177,-0.029037918669413288
0.003356984817273213,-0.03121995880064088
0.006378271152819104,-0.03189135576409552
0.007721065079728388,-0.03121995880064088
0.010406652933546959,-0.03608758678568704
0.0157778286411841,-0.04649423971923399
0.020477607385366595,-0.05857938506141757
0.024841687647821773,-0.06697184710460058
0.02752727550164034,-0.06898603799496453
0.0315556572823682,-0.07066453040360113
0.025513084611276417,-0.0775463492790112
0.020813305867093918,-0.08342107270923933
0.014435034714274816,-0.08543526359960325
0.0016784924086366065,-0.0800640878919661
-0.0003356984817273213,-0.07066453040360113
-0.0023498893720912484,-0.06092927443350881
-0.0016784924086366065,-0.053208209353780414
-0.0016784924086366065,-0.049347676813916226
-0.0030212863355458916,-0.04615854123750667
-0.005706874189364461,-0.03978027008468757
-0.0016784924086366065,-0.03205920500495917
-0.0030212863355458916,-0.024338139925230793
-0.005706874189364461,-0.022323949034866862
-0.0003356984817273213,-0.026352330815594724
0.0050354772259098195,-0.025009536888685433
0.014435034714274816,-0.019638361181048294
0.019470511940184634,-0.011917296101319903
0.016784924086366067,-0.0035248340581368735
0.0157778286411841,0.003189135576409552
0.010406652933546959,0.006378271152819104
0.003356984817273213,0.003189135576409552
0.004364080262455177,-0.0015106431677729458
0.011749446860456245,-0.00788891432059205
0.015106431677729458,-0.012588693064774548
0.014099336232547494,-0.014435034714274816
0.006378271152819104,-0.0157778286411841
0.0016784924086366065,-0.019974059662775615
-0.007049668116273747,-0.028030823224231328
-0.008392462043183033,-0.03457694361791409
-0.0030212863355458916,-0.03508049134050507
0.003692683299000534,-0.030716411078049892
0.007721065079728388,-0.029709315632867935
-0.0003356984817273213,-0.03373769741359579
-0.0050354772259098195,-0.04061951628900587
-0.003356984817273213,-0.051529716945143814
0.0006713969634546426,-0.06126497291523613
0.0023498893720912484,-0.06898603799496453
0.011078049897001601,-0.07267872129396505
0.020813305867093918,-0.07217517357137408
0.02584878309300374,-0.07200732433051041
0.02652018005645838,-0.07435721370260165
0.022491798275730522,-0.07989623865110246
0.021149004348821242,-0.08140688181887541
0.01846341649500267,-0.07335011825741969
0.010406652933546959,-0.058915083543144876
0.0010070954451819635,-0.048844129091325246
-0.0030212863355458916,-0.044815747310597384
-0.0023498893720912484,-0.043808651865415424
-0.003692683299000534,-0.03843747615777828
-0.0030212863355458916,-0.03189135576409552
-0.0030212863355458916,-0.029709315632867935
-0.004364080262455177,-0.028366521705958644
-0.0016784924086366065,-0.02719157701991302
-0.0003356984817273213,-0.022995345998321506
0.0050354772259098195,-0.01628137636377508
0.011078049897001601,-0.007553215838864729
0.014435034714274816,0.001846341649500267
0.013092240787365528,0.006546120393682764
0.010406652933546959,0.005874723430228122
0.006378271152819104,0.003860532539864194
0.007721065079728388,0.004867627985046159
0.013092240787365528,0.0035248340581368735
0.017120622568093383,-0.0011749446860456242
0.01846341649500267,-0.009231708247501335
0.017120622568093383,-0.014602883955138474
0.011749446860456245,-0.01628137636377508
0.009063859006637675,-0.020981155107957578
0.007049668116273747,-0.025680933852140077
0.003356984817273213,-0.027695124742504008
0.003692683299000534,-0.028366521705958644
0.0050354772259098195,-0.028366521705958644
0.010406652933546959,-0.02937361715114061
0.011413748378728923,-0.03105210955977722
0.005706874189364461,-0.035919737544823374
-0.011749446860456245,-0.044480048828870064
-0.021820401312275882,-0.05253681239032577
-0.020813305867093918,-0.05857938506141757
-0.013092240787365528,-0.06596475165941862
-0.0003356984817273213,-0.07284657053482871
0.008728160524910353,-0.07737850003814756
0.009735255970092317,-0.07872129396505684
0.014435034714274816,-0.07939269092851148
0.019806210421911954,-0.07553215838864728
0.019470511940184634,-0.06596475165941862
0.021149004348821242,-0.056900892652780956
0.020477607385366595,-0.04716563668268864
0.010406652933546959,-0.040451667048142216
0.006378271152819104,-0.03508049134050507
0.007721065079728388,-0.02937361715114061
0.004364080262455177,-0.02668802929732204
-0.0010070954451819635,-0.024338139925230793
-0.0016784924086366065,-0.0260166323338674
-0.004364080262455177,-0.02853437094682231
-0.0016784924086366065,-0.026352330815594724
-0.0023498893720912484,-0.019638361181048294
0.0010070954451819635,-0.008896009765774012
0.0050354772259098195,-0.0015106431677729458
0.003692683299000534,0.001846341649500267
0.008392462043183033,-0.00016784924086366064
0.006378271152819104,-0.0016784924086366065
0.007721065079728388,-0.006378271152819104
0.0157778286411841,-0.011245899137865261
0.01913481345845731,-0.014938582436865796
0.029877164873731592,-0.019638361181048294
0.029877164873731592,-0.024673838406958113
0.021149004348821242,-0.028366521705958644
0.011413748378728923,-0.028366521705958644
0.007721065079728388,-0.027359426260776684
-0.0003356984817273213,-0.03105210955977722
-0.0030212863355458916,-0.04061951628900587
0.0010070954451819635,-0.04666208896009766
-0.008392462043183033,-0.048508430609597926
-0.0050354772259098195,-0.048508430609597926
-0.003356984817273213,-0.049851224536507206
-0.007049668116273747,-0.05555809872587166
-0.0030212863355458916,-0.05992217898832684
-0.004699778744182497,-0.06361486228732739
0.002014190890363927,-0.06865033951323721
0.007721065079728388,-0.07469291218432898
0.008728160524910353,-0.0767071030746929
0.009735255970092317,-0.07486076142519264
0.01846341649500267,-0.06898603799496453
0.019806210421911954,-0.060593575951781484
0.01376363775082017,-0.05589379720759898
0.0157778286411841,-0.05387960631723506
0.012756542305638208,-0.0520332646677348
0.011078049897001601,-0.04783703364614328
0.017792019531548024,-0.041123064011596856
0.021149004348821242,-0.03390554665445944
0.01376363775082017,-0.029709315632867935
0.011749446860456245,-0.03105210955977722
0.0003356984817273213,-0.03172350652323186
-0.0016784924086366065,-0.029709315632867935
-0.0003356984817273213,-0.020645456626230255
-0.0030212863355458916,-0.007553215838864729
-0.0030212863355458916,0.003189135576409552
-0.013092240787365528,0.007553215838864729
-0.016784924086366067,0.006546120393682764
-0.020477607385366595,0.004531929503318838
-0.008392462043183033,0.0035248340581368735
0.0023498893720912484,-0.0008392462043183033
0.012420843823910887,-0.01292439154650187
0.015442130159456776,-0.021988250553139542
0.0157778286411841,-0.022995345998321506
0.016784924086366067,-0.018631265735866327
0.017120622568093383,-0.01896696421759365
0.021149004348821242,-0.020309758144502935
0.02652018005645838,-0.022156099794003202
0.02652018005645838,-0.03105210955977722
0.019806210421911954,-0.03776607919432364
0.0157778286411841,-0.03978027008468757
0.007721065079728388,-0.03910887312123293
-0.005706874189364461,-0.03843747615777828
-0.006042572671091783,-0.041123064011596856
-0.006378271152819104,-0.044647898069733724
-0.007385366598001068,-0.051865415426871134
-0.017792019531548024,-0.06126497291523613
-0.026184481574731057,-0.06596475165941862
-0.017120622568093383,-0.06411841000991834
-0.007385366598001068,-0.06344701304646372
0.002014190890363927,-0.06596475165941862
0.0050354772259098195,-0.06596475165941862
0.016449225604638743,-0.06529335469596398
0.02719157701991302,-0.06160067139696345
0.03189135576409552,-0.05488670176241703
0.030212863355458915,-0.04783703364614328
0.024505989166094453,-0.03978027008468757
0.022491798275730522,-0.03508049134050507
0.02652018005645838,-0.03440909437705043
0.02853437094682231,-0.0323949034866865
0.021820401312275882,-0.028366521705958644
0.009063859006637675,-0.02333104448004883
-0.0003356984817273213,-0.020645456626230255
-0.011749446860456245,-0.017792019531548024
-0.015442130159456776,-0.01292439154650187
-0.012420843823910887,-0.008224612802319372
-0.006378271152819104,-0.001846341649500267
-0.003692683299000534,0.003860532539864194
-0.005706874189364461,0.005874723430228122
-0.011078049897001601,0.003860532539864194
-0.003356984817273213,-0.0015106431677729458
0.003692683299000534,-0.0052033264667734795
0.0050354772259098195,-0.010574502174410621
0.012756542305638208,-0.01695277332722972
0.01846341649500267,-0.024338139925230793
0.020477607385366595,-0.03105210955977722
0.021149004348821242,-0.03373769741359579
0.019806210421911954,-0.03978027008468757
0.019806210421911954,-0.042465857938506144
0.019470511940184634,-0.04011596856641489
0.021149004348821242,-0.035751888303959714
0.017792019531548024,-0.03440909437705043
0.011749446860456245,-0.03810177767605096
0.0050354772259098195,-0.04682993820096131
0.0023498893720912484,-0.05740444037537193
-0.0016784924086366065,-0.06462195773250935
-0.008392462043183033,-0.06865033951323721
-0.005706874189364461,-0.07100022888532845
-0.007049668116273747,-0.07284657053482871
-0.011078049897001601,-0.07335011825741969
-0.008392462043183033,-0.06881818875410085
0.0023498893720912484,-0.06126497291523613
0.006378271152819104,-0.053208209353780414
0.009063859006637675,-0.048508430609597926
0.017792019531548024,-0.04783703364614328
0.023163195239185166,-0.049851224536507206
0.0157778286411841,-0.04649423971923399
0.005706874189364461,-0.04011596856641489
-0.008392462043183033,-0.0323949034866865
-0.0016784924086366065,-0.028702220187685965
0.009063859006637675,-0.02937361715114061
0.013092240787365528,-0.027862973983367664
0.012756542305638208,-0.022995345998321506
0.009735255970092317,-0.01359578850995651
0.0050354772259098195,-0.003860532539864194
-0.002014190890363927,0.003860532539864194
-0.007721065079728388,0.007049668116273747
-0.006042572671091783,0.007217517357137408
-0.005706874189364461,0.004867627985046159
-0.005706874189364461,-0.0015106431677729458
-0.0003356984817273213,-0.009231708247501335
-0.0010070954451819635,-0.017624170290684367
0.0,-0.023163195239185166
0.0,-0.025680933852140077
0.0,-0.028702220187685965
0.0,-0.03508049134050507
0.0,-0.04213015945677882
0.0,-0.04531929503318838
0.0,-0.044647898069733724
0.0,-0.04213015945677882
0.0,-0.03978027008468757
0.0,-0.04213015945677882
0.0,-0.04917982757305257
0.0,-0.05656519417105363
0.0,-0.06126497291523613
0.0,-0.06260776684214542
0.0,-0.06596475165941862
0.0,-0.07267872129396505
0.0,-0.07737850003814756
-0.011078049897001601,-0.07704280155642022
-0.012420843823910887,-0.06764324406805522
-0.006378271152819104,-0.05555809872587166
0.0010070954451819635,-0.04666208896009766
0.0016784924086366065,-0.044815747310597384
0.0023498893720912484,-0.04783703364614328
0.007721065079728388,-0.049851224536507206
0.006378271152819104,-0.04716563668268864
0.0050354772259098195,-0.040451667048142216
0.010406652933546959,-0.033401998931868467
0.021149004348821242,-0.028366521705958644
0.022156099794003202,-0.02668802929732204
0.017792019531548024,-0.024505989166094453
0.0157778286411841,-0.01695277332722972
0.012420843823910887,-0.007217517357137408
0.017120622568093383,0.0021820401312275884
0.011749446860456245,0.009567406729228655
0.006378271152819104,0.014602883955138474
-0.0016784924086366065,0.014267185473411156
-0.01376363775082017,0.008560311284046692
-0.012756542305638208,0.0005035477225909818
-0.0030212863355458916,-0.008224612802319372
0.0023498893720912484,-0.01326009002822919
0.0010070954451819635,-0.01695277332722972
-0.0003356984817273213,-0.024338139925230793
0.0016784924086366065,-0.033066300450141146
0.007721065079728388,-0.03675898374914168
0.010406652933546959,-0.03440909437705043
0.011078049897001601,-0.030045014114595252
0.016784924086366067,-0.02887006942854963
0.01846341649500267,-0.03105210955977722
0.019470511940184634,-0.03508049134050507
0.02349889372091249,-0.041794460975051496
0.023834592202639806,-0.053208209353780414
0.0157778286411841,-0.05958648050659952
0.008392462043183033,-0.0639505607690547
0.007385366598001068,-0.07167162584878309
0.007721065079728388,-0.08274967574578469
0.003692683299000534,-0.08946364538033112
-0.011749446860456245,-0.09147783627069504
-0.011749446860456245,-0.08543526359960325
-0.005706874189364461,-0.07368581673914701
-0.003692683299000534,-0.06462195773250935
0.0003356984817273213,-0.05958648050659952
-0.0003356984817273213,-0.05555809872587166
-0.0010070954451819635,-0.04582284275577936
-0.004699778744182497,-0.03608758678568704
-0.006378271152819104,-0.029709315632867935
0.0023498893720912484,-0.026352330815594724
0.007721065079728388,-0.021988250553139542
0.008728160524910353,-0.01829556725413901
0.006378271152819104,-0.01829556725413901
0.008392462043183033,-0.017624170290684367
0.016784924086366067,-0.01359578850995651
0.019470511940184634,-0.008224612802319372
0.019806210421911954,-0.0028534370946822307
0.019806210421911954,-0.0008392462043183033
0.01376363775082017,-0.0005035477225909818
0.0050354772259098195,-0.0015106431677729458
-0.0006713969634546426,-0.004364080262455177
0.003692683299000534,-0.006881818875410085
0.007721065079728388,-0.011581597619592583
0.0010070954451819635,-0.019302662699320974
-0.010070954451819639,-0.0260166323338674
-0.015106431677729458,-0.027695124742504008
-0.014435034714274816,-0.020309758144502935
-0.005706874189364461,-0.014267185473411156
0.007721065079728388,-0.017959868772411687
0.011078049897001601,-0.028366521705958644
0.021149004348821242,-0.03910887312123293
0.02652018005645838,-0.04414435034714275
0.024841687647821773,-0.048508430609597926
0.021149004348821242,-0.053208209353780414
0.017792019531548024,-0.05555809872587166
0.0157778286411841,-0.059250782024872196
0.01376363775082017,-0.062272068360418105
0.01376363775082017,-0.06529335469596398
0.0157778286411841,-0.06932173647669183
0.011749446860456245,-0.07335011825741969
0.007049668116273747,-0.07133592736705577
0.0023498893720912484,-0.06260776684214542
-0.0030212863355458916,-0.054551003280689715
-0.004364080262455177,-0.05119401846341649
-0.005706874189364461,-0.050019073777370866
-0.008728160524910353,-0.04783703364614328
-0.004699778744182497,-0.043808651865415424
-0.003692683299000534,-0.036423285267414354
0.0010070954451819635,-0.030716411078049892
0.0030212863355458916,-0.028366521705958644
-0.0003356984817273213,-0.027023727779049357
0.003692683299000534,-0.02366674296177615
0.008392462043183033,-0.017624170290684367
0.014435034714274816,-0.006881818875410085
0.022156099794003202,0.004531929503318838
0.023163195239185166,0.012420843823910887
0.0157778286411841,0.014267185473411156
0.004364080262455177,0.010574502174410621
0.006378271152819104,0.010238803692683297
0.010070954451819639,0.011245899137865261
0.0157778286411841,0.009231708247501335
0.003692683299000534,0.0050354772259098195
0.0010070954451819635,-0.007553215838864729
0.006378271152819104,-0.01846341649500267
0.003692683299000534,-0.02668802929732204
-0.0003356984817273213,-0.03205920500495917
-0.0003356984817273213,-0.03457694361791409
-0.0016784924086366065,-0.036423285267414354
-0.004364080262455177,-0.03944457160296025
-0.002014190890363927,-0.04313725490196078
-0.0003356984817273213,-0.043976501106279084
-0.0003356984817273213,-0.04800488288700694
0.0023498893720912484,-0.05589379720759898
0.007721065079728388,-0.06126497291523613
0.017120622568093383,-0.06495765621423667
0.022491798275730522,-0.06932173647669183
0.025177386129549097,-0.07737850003814756
0.022491798275730522,-0.08241397726405737
0.021149004348821242,-0.08274967574578469
0.01846341649500267,-0.08140688181887541
0.015442130159456776,-0.07570000762951096
0.013092240787365528,-0.06294346532387274
0.010406652933546959,-0.051361867704280154
-0.0023498893720912484,-0.04615854123750667
-0.016449225604638743,-0.044815747310597384
-0.016449225604638743,-0.040451667048142216
-0.004364080262455177,-0.03910887312123293
-0.003356984817273213,-0.042465857938506144
-0.009063859006637675,-0.043472953383688104
-0.007049668116273747,-0.042465857938506144
-0.004364080262455177,-0.03910887312123293
-0.0016784924086366065,-0.03373769741359579
0.007721065079728388,-0.025680933852140077
0.013092240787365528,-0.016617074845502403
0.004699778744182497,-0.010238803692683297
0.003692683299000534,-0.0015106431677729458
0.008728160524910353,0.008560311284046692
0.013092240787365528,0.014938582436865796
0.021149004348821242,0.014602883955138474
0.02652018005645838,0.007217517357137408
0.019806210421911954,-0.001846341649500267
0.009063859006637675,-0.011917296101319903
0.0010070954451819635,-0.019638361181048294
-0.0010070954451819635,-0.0260166323338674
-0.0016784924086366065,-0.030380712596322572
0.0006713969634546426,-0.028366521705958644
0.0016784924086366065,-0.025345235370412753
0.0003356984817273213,-0.02853437094682231
-0.006378271152819104,-0.037094682230869
-0.008728160524910353,-0.041794460975051496
-0.007049668116273747,-0.04095521477073319
-0.006378271152819104,-0.040451667048142216
-0.0030212863355458916,-0.044983596551461044
0.003692683299000534,-0.050019073777370866
0.009735255970092317,-0.05387960631723506
0.013092240787365528,-0.05589379720759898
0.021149004348821242,-0.05790798809796292
0.026184481574731057,-0.0639505607690547
0.021149004348821242,-0.07267872129396505
0.023163195239185166,-0.07570000762951096
0.025177386129549097,-0.06999313344014649
0.01913481345845731,-0.06260776684214542
0.012420843823910887,-0.0528725108720531
0.010406652933546959,-0.04615854123750667
0.007721065079728388,-0.04531929503318838
0.0023498893720912484,-0.044480048828870064
0.0006713969634546426,-0.043808651865415424
-0.0016784924086366065,-0.04313725490196078
-0.0023498893720912484,-0.042465857938506144
0.0030212863355458916,-0.03978027008468757
0.011078049897001601,-0.032730601968413826
0.006378271152819104,-0.025009536888685433
-0.0010070954451819635,-0.01628137636377508
-0.004364080262455177,-0.010406652933546959
-0.0030212863355458916,-0.0035248340581368735
0.0010070954451819635,0.0035248340581368735
0.008392462043183033,0.0055390249485008005
0.01846341649500267,-0.0005035477225909818
0.029205767910276948,-0.0055390249485008005
0.02652018005645838,-0.0035248340581368735
0.011078049897001601,-0.0055390249485008005
-0.0003356984817273213,-0.014938582436865796
0.0023498893720912484,-0.026352330815594724
0.007049668116273747,-0.030380712596322572
0.0050354772259098195,-0.025680933852140077
0.0023498893720912484,-0.022995345998321506
-0.0030212863355458916,-0.026352330815594724
-0.009735255970092317,-0.030380712596322572
-0.011078049897001601,-0.03440909437705043
-0.013092240787365528,-0.041794460975051496
-0.007049668116273747,-0.050522621499961846
-0.0030212863355458916,-0.05589379720759898
-0.0030212863355458916,-0.057572289616235596
0.0003356984817273213,-0.059250782024872196
0.0023498893720912484,-0.05958648050659952
0.005706874189364461,-0.061936369878690785
0.0050354772259098195,-0.06277561608300908
0.011413748378728923,-0.06411841000991834
0.016784924086366067,-0.06764324406805522
0.01846341649500267,-0.06797894254978255
0.01846341649500267,-0.06260776684214542
0.01846341649500267,-0.04917982757305257
0.014435034714274816,-0.03508049134050507
0.014435034714274816,-0.03105210955977722
0.014099336232547494,-0.0323949034866865
0.009063859006637675,-0.03508049134050507
0.005706874189364461,-0.03508049134050507
0.0030212863355458916,-0.035751888303959714
0.0023498893720912484,-0.03860532539864195
0.003692683299000534,-0.03910887312123293
0.005706874189364461,-0.033066300450141146
0.007049668116273747,-0.01896696421759365
0.006378271152819104,-0.007553215838864729
0.0023498893720912484,-0.0028534370946822307
0.0010070954451819635,-0.0006713969634546426
0.002014190890363927,0.001846341649500267
0.0023498893720912484,0.006210421911955443
0.0010070954451819635,0.008224612802319372
0.015106431677729458,0.006546120393682764
0.01846341649500267,0.0023498893720912484
0.017120622568093383,-0.004196231021591517
0.0050354772259098195,-0.010238803692683297
0.0010070954451819635,-0.017624170290684367
0.005706874189364461,-0.029037918669413288
0.014099336232547494,-0.035751888303959714
0.01846341649500267,-0.0387731746395056
0.011749446860456245,-0.037094682230869
0.006378271152819104,-0.03440909437705043
0.0016784924086366065,-0.03474479285877775
-0.0016784924086366065,-0.040451667048142216
-0.0030212863355458916,-0.05119401846341649
-0.0003356984817273213,-0.06260776684214542
0.0023498893720912484,-0.06932173647669183
0.006378271152819104,-0.07133592736705577
0.006378271152819104,-0.06999313344014649
-0.0030212863355458916,-0.06831464103150987
-0.012420843823910887,-0.07100022888532845
-0.003692683299000534,-0.0750286106660563
0.009063859006637675,-0.07536430914778362
0.011749446860456245,-0.07284657053482871
0.013092240787365528,-0.0639505607690547
0.017120622568093383,-0.051361867704280154
0.017792019531548024,-0.04313725490196078
0.014435034714274816,-0.04011596856641489
0.0157778286411841,-0.041123064011596856
0.01812771801327535,-0.041123064011596856
0.020477607385366595,-0.04078736552986953
0.01846341649500267,-0.03944457160296025
0.012420843823910887,-0.03440909437705043
0.0003356984817273213,-0.027359426260776684
-0.007721065079728388,-0.021652552071412222
-0.010406652933546959,-0.01695277332722972
-0.008392462043183033,-0.012588693064774548
-0.005706874189364461,-0.009735255970092317
-0.003692683299000534,-0.004867627985046159
-0.004364080262455177,-0.0015106431677729458
0.0010070954451819635,-0.00016784924086366064
0.007049668116273747,0.0025177386129549098
0.007721065079728388,0.004531929503318838
0.006378271152819104,-0.0015106431677729458
0.014435034714274816,-0.010910200656137941
0.01913481345845731,-0.017624170290684367
0.021820401312275882,-0.021820401312275882
0.022156099794003202,-0.027359426260776684
0.01846341649500267,-0.035751888303959714
0.017792019531548024,-0.04011596856641489
0.019806210421911954,-0.03944457160296025
0.017120622568093383,-0.03978027008468757
0.01846341649500267,-0.044480048828870064
0.014099336232547494,-0.050690470740825506
0.012756542305638208,-0.05555809872587166
0.010406652933546959,-0.05656519417105363
-0.009063859006637675,-0.053208209353780414
-0.01913481345845731,-0.05253681239032577
-0.021820401312275882,-0.05790798809796292
-0.014099336232547494,-0.06260776684214542
-0.013092240787365528,-0.06932173647669183
-0.009735255970092317,-0.07637140459296558
-0.0003356984817273213,-0.07486076142519264
0.007721065079728388,-0.0639505607690547
0.007049668116273747,-0.05119401846341649
0.010070954451819639,-0.043472953383688104
0.0157778286411841,-0.041123064011596856
0.0157778286411841,-0.041794460975051496
0.013092240787365528,-0.04313725490196078
0.009735255970092317,-0.042465857938506144
0.014435034714274816,-0.040451667048142216
0.011413748378728923,-0.03978027008468757
0.0050354772259098195,-0.035751888303959714
0.005706874189364461,-0.028030823224231328
0.0026855878538185702,-0.019974059662775615
-0.005706874189364461,-0.010910200656137941
-0.004364080262455177,-0.0015106431677729458
-0.006042572671091783,0.003860532539864194
-0.007049668116273747,0.005706874189364461
-0.0030212863355458916,0.007553215838864729
-0.0016784924086366065,0.008728160524910353
-0.004364080262455177,0.00788891432059205
-0.0006713969634546426,0.00016784924086366064
0.007721065079728388,-0.009903105210955977
0.013092240787365528,-0.01829556725413901
0.015106431677729458,-0.028702220187685965
0.019470511940184634,-0.03978027008468757
0.01846341649500267,-0.044480048828870064
0.01846341649500267,-0.03910887312123293
0.01846341649500267,-0.03256275272755016
0.023834592202639806,-0.03390554665445944
0.01846341649500267,-0.03608758678568704
0.013092240787365528,-0.03675898374914168
0.01846341649500267,-0.03810177767605096
0.015442130159456776,-0.04414435034714275
0.015106431677729458,-0.05354390783550774
0.009063859006637675,-0.061936369878690785
-0.0030212863355458916,-0.06596475165941862
-0.008392462043183033,-0.06613260090028229
-0.0016784924086366065,-0.06865033951323721
0.0006713969634546426,-0.07536430914778362
-0.005706874189364461,-0.07872129396505684
-0.004364080262455177,-0.0767071030746929
-0.0003356984817273213,-0.07267872129396505
-0.0003356984817273213,-0.06562905317769131
0.002014190890363927,-0.057236591134508276
0.010406652933546959,-0.048844129091325246
0.01376363775082017,-0.04313725490196078
0.014435034714274816,-0.03743038071259632
0.013092240787365528,-0.029709315632867935
0.013092240787365528,-0.025680933852140077
0.017120622568093383,-0.0260166323338674
0.01846341649500267,-0.025680933852140077
0.019806210421911954,-0.021820401312275882
0.009063859006637675,-0.01560997940032044
-0.008392462043183033,-0.0052033264667734795
-0.015106431677729458,0.004867627985046159
-0.004364080262455177,0.007721065079728388
0.006378271152819104,0.007553215838864729
0.013092240787365528,0.003860532539864194
0.011749446860456245,0.0005035477225909818
0.013092240787365528,0.003860532539864194
0.009063859006637675,0.00788891432059205
-0.009735255970092317,0.006210421911955443
-0.03054856183718624,-0.005874723430228122
-0.03256275272755016,-0.019638361181048294
-0.017792019531548024,-0.027359426260776684
0.004364080262455177,-0.028366521705958644
0.011078049897001601,-0.026352330815594724
0.011749446860456245,-0.026352330815594724
0.017792019531548024,-0.029709315632867935
0.023834592202639806,-0.03659113450827802
0.029205767910276948,-0.04078736552986953
0.03054856183718624,-0.04129091325246051
0.022156099794003202,-0.04716563668268864
0.021149004348821242,-0.05824368657969024
0.017792019531548024,-0.06462195773250935
0.015106431677729458,-0.06562905317769131
0.01376363775082017,-0.06562905317769131
0.012420843823910887,-0.06999313344014649
0.013092240787365528,-0.0767071030746929
0.009063859006637675,-0.0767071030746929
-0.0023498893720912484,-0.07284657053482871
-0.012756542305638208,-0.064789806973373
-0.01913481345845731,-0.05622949568932631
-0.008392462043183033,-0.04582284275577936
-0.0010070954451819635,-0.03508049134050507
-0.004364080262455177,-0.028366521705958644
0.007049668116273747,-0.025680933852140077
0.0157778286411841,-0.027359426260776684
0.0157778286411841,-0.026352330815594724
0.017792019531548024,-0.021988250553139542
0.017792019531548024,-0.017959868772411687
0.01846341649500267,-0.012588693064774548
0.015106431677729458,-0.006210421911955443
0.009063859006637675,0.00016784924086366064
0.009735255970092317,0.004196231021591517
0.009063859006637675,0.007049668116273747
0.007721065079728388,0.008224612802319372
0.004364080262455177,0.008896009765774012
-0.0016784924086366065,0.007217517357137408
-0.0030212863355458916,-0.0008392462043183033
-0.0030212863355458916,-0.011581597619592583
-0.006042572671091783,-0.02333104448004883
-0.009735255970092317,-0.029709315632867935
-0.006378271152819104,-0.029709315632867935
-0.0003356984817273213,-0.030716411078049892
-0.0016784924086366065,-0.032730601968413826
0.003692683299000534,-0.03172350652323186
0.014435034714274816,-0.03138780804150454
0.007721065079728388,-0.0323949034866865
0.0050354772259098195,-0.037094682230869
0.011749446860456245,-0.044815747310597384
0.012756542305638208,-0.0528725108720531
0.009735255970092317,-0.062272068360418105
0.010406652933546959,-0.07234302281223774
0.009063859006637675,-0.0767071030746929
0.015106431677729458,-0.07301441977569237
0.017120622568093383,-0.06932173647669183
0.007049668116273747,-0.07200732433051041
0.0016784924086366065,-0.07402151522087433
0.0016784924086366065,-0.07469291218432898
0.003356984817273213,-0.07167162584878309
-0.0010070954451819635,-0.06613260090028229
-0.004699778744182497,-0.057572289616235596
-0.003692683299000534,-0.048508430609597926
-0.003692683299000534,-0.042465857938506144
-0.0030212863355458916,-0.03743038071259632
0.0023498893720912484,-0.035248340581368734
0.0023498893720912484,-0.03776607919432364
0.0050354772259098195,-0.04313725490196078
0.007721065079728388,-0.04145876249332417
0.007721065079728388,-0.03105210955977722
0.0050354772259098195,-0.01896696421759365
0.006378271152819104,-0.008896009765774012
0.0157778286411841,-0.0035248340581368735
0.02652018005645838,0.001846341649500267
0.03189135576409552,0.007721065079728388
0.026184481574731057,0.008896009765774012
0.014435034714274816,0.004531929503318838
0.0023498893720912484,-0.0021820401312275884
-0.012756542305638208,-0.009231708247501335
-0.011078049897001601,-0.013092240787365528
-0.0010070954451819635,-0.01628137636377508
0.0016784924086366065,-0.020309758144502935
0.004364080262455177,-0.025680933852140077
-0.0030212863355458916,-0.03608758678568704
-0.006042572671091783,-0.04213015945677882
-0.0003356984817273213,-0.03860532539864195
0.003692683299000534,-0.033066300450141146
0.005706874189364461,-0.032730601968413826
0.009735255970092317,-0.03843747615777828
0.010406652933546959,-0.044480048828870064
0.013092240787365528,-0.05119401846341649
0.0157778286411841,-0.05941863126573587
0.019806210421911954,-0.06898603799496453
0.019470511940184634,-0.07267872129396505
0.01913481345845731,-0.07469291218432898
0.0157778286411841,-0.07838559548332952
0.021149004348821242,-0.07939269092851148
0.022491798275730522,-0.0767071030746929
0.015442130159456776,-0.06932173647669183
0.007721065079728388,-0.061936369878690785
-0.0016784924086366065,-0.05488670176241703
-0.009063859006637675,-0.04682993820096131
-0.011413748378728923,-0.04078736552986953
-0.007721065079728388,-0.03927672236209659
-0.0006713969634546426,-0.03843747615777828
0.0023498893720912484,-0.03390554665445944
0.007049668116273747,-0.029709315632867935
0.003692683299000534,-0.027862973983367664
0.0050354772259098195,-0.027695124742504008
0.009063859006637675,-0.023163195239185166
0.013092240787365528,-0.01560997940032044
0.017120622568093383,-0.005874723430228122
0.01913481345845731,0.0025177386129549098
0.011749446860456245,0.00788891432059205
0.011749446860456245,0.011245899137865261
0.006378271152819104,0.010574502174410621
0.004364080262455177,0.0050354772259098195
0.003692683299000534,-0.004196231021591517
0.0023498893720912484,-0.010238803692683297
0.002014190890363927,-0.014267185473411156
0.0013427939269092851,-0.017624170290684367
0.0010070954451819635,-0.025680933852140077
-0.0003356984817273213,-0.03508049134050507
0.003692683299000534,-0.03776607919432364
0.0023498893720912484,-0.03373769741359579
-0.0003356984817273213,-0.029037918669413288
-0.002014190890363927,-0.030380712596322572
0.0010070954451819635,-0.035751888303959714
-0.0003356984817273213,-0.04313725490196078
0.0023498893720912484,-0.054047455558098714
0.010406652933546959,-0.06562905317769131
0.014435034714274816,-0.07267872129396505
0.013092240787365528,-0.07301441977569237
0.01376363775082017,-0.07133592736705577
0.009735255970092317,-0.07167162584878309
0.012420843823910887,-0.07553215838864728
0.0157778286411841,-0.07737850003814756
0.021149004348821242,-0.07217517357137408
0.01846341649500267,-0.06260776684214542
0.011749446860456245,-0.05522240024414436
0.0050354772259098195,-0.051865415426871134
-0.0030212863355458916,-0.04666208896009766
-0.005706874189364461,-0.03978027008468757
-0.005706874189364461,-0.0323949034866865
0.0010070954451819635,-0.0260166323338674
0.0010070954451819635,-0.02333104448004883
0.0010070954451819635,-0.022995345998321506
0.0050354772259098195,-0.024338139925230793
-0.0030212863355458916,-0.024338139925230793
-0.01376363775082017,-0.02265964751659419
-0.008728160524910353,-0.014938582436865796
0.0016784924086366065,-0.0025177386129549098
0.013092240787365528,0.0025177386129549098
0.02719157701991302,-0.0015106431677729458
0.01846341649500267,-0.004196231021591517
0.007721065079728388,-0.003189135576409552
0.006378271152819104,-0.003189135576409552
0.010070954451819639,-0.004867627985046159
0.015106431677729458,-0.008896009765774012
0.013092240787365528,-0.01695277332722972
0.008056763561455708,-0.024338139925230793
0.009063859006637675,-0.03138780804150454
0.0050354772259098195,-0.03474479285877775
0.0010070954451819635,-0.033066300450141146
-0.0003356984817273213,-0.02937361715114061
0.0016784924086366065,-0.025680933852140077
0.0023498893720912484,-0.022323949034866862
-0.008392462043183033,-0.022995345998321506
-0.021820401312275882,-0.03105210955977722
-0.016449225604638743,-0.041794460975051496
-0.0016784924086366065,-0.050522621499961846
0.007049668116273747,-0.05874723430228122
0.010406652933546959,-0.06932173647669183
0.01376363775082017,-0.07553215838864728
0.020813305867093918,-0.07704280155642022
0.02584878309300374,-0.07368581673914701
0.02652018005645838,-0.06898603799496453
0.03054856183718624,-0.06126497291523613
0.03424124513618677,-0.0528725108720531
0.02719157701991302,-0.050522621499961846
0.016449225604638743,-0.04917982757305257
0.011078049897001601,-0.044647898069733724
-0.0030212863355458916,-0.03910887312123293
-0.011078049897001601,-0.03440909437705043
-0.0030212863355458916,-0.03205920500495917
0.0030212863355458916,-0.03121995880064088
0.0023498893720912484,-0.03205920500495917
-0.0003356984817273213,-0.03172350652323186
-0.008392462043183033,-0.0260166323338674
-0.005706874189364461,-0.014267185473411156
-0.0010070954451819635,-0.004867627985046159
-0.0016784924086366065,-0.0030212863355458916
-0.0010070954451819635,-0.004531929503318838
0.0050354772259098195,-0.005874723430228122
0.013092240787365528,-0.006210421911955443
0.01846341649500267,-0.004196231021591517
0.01846341649500267,-0.0021820401312275884
0.019806210421911954,-0.0035248340581368735
0.017792019531548024,-0.008896009765774012
0.008392462043183033,-0.01829556725413901
0.0050354772259098195,-0.027023727779049357
0.003356984817273213,-0.030716411078049892
0.0023498893720912484,-0.030716411078049892
0.0050354772259098195,-0.03172350652323186
-0.0003356984817273213,-0.03373769741359579
-0.0006713969634546426,-0.03440909437705043
-0.0003356984817273213,-0.03776607919432364
-0.0003356984817273213,-0.04515144579232471
0.0023498893720912484,-0.05522240024414436
0.003692683299000534,-0.061936369878690785
0.004364080262455177,-0.06126497291523613
0.0016784924086366065,-0.0639505607690547
-0.0003356984817273213,-0.06865033951323721
-0.0030212863355458916,-0.07469291218432898
-0.0003356984817273213,-0.07872129396505684
0.008392462043183033,-0.07704280155642022
0.006378271152819104,-0.07200732433051041
0.003692683299000534,-0.064789806973373
0.007721065079728388,-0.059250782024872196
0.019806210421911954,-0.05387960631723506
0.021149004348821242,-0.049851224536507206
0.01846341649500267,-0.04531929503318838
0.017120622568093383,-0.03776607919432364
0.011749446860456245,-0.030716411078049892
0.0050354772259098195,-0.02887006942854963
0.008392462043183033,-0.033401998931868467
0.007049668116273747,-0.036423285267414354
0.0050354772259098195,-0.03138780804150454
0.006042572671091783,-0.01846341649500267
0.0023498893720912484,-0.004196231021591517
-0.0016784924086366065,0.004196231021591517
-0.007049668116273747,0.005706874189364461
-0.008392462043183033,0.004531929503318838
-0.005706874189364461,0.0025177386129549098
0.008392462043183033,0.0030212863355458916
0.015106431677729458,0.0025177386129549098
0.012756542305638208,-0.004867627985046159
0.011078049897001601,-0.01628137636377508
0.007049668116273747,-0.025177386129549097
0.009063859006637675,-0.028366521705958644
0.015106431677729458,-0.029709315632867935
0.011749446860456245,-0.030380712596322572
0.009735255970092317,-0.03172350652323186
0.014099336232547494,-0.03508049134050507
0.0157778286411841,-0.040451667048142216
0.011078049897001601,-0.041794460975051496
0.0023498893720912484,-0.037094682230869
-0.004364080262455177,-0.035751888303959714
-0.0013427939269092851,-0.04145876249332417
-0.0030212863355458916,-0.05337605859464408
-0.003356984817273213,-0.06613260090028229
-0.005706874189364461,-0.07267872129396505
-0.012756542305638208,-0.07402151522087433
-0.02719157701991302,-0.07402151522087433
-0.01913481345845731,-0.07368581673914701
-0.0023498893720912484,-0.07150377660791943
0.008728160524910353,-0.06495765621423667
0.009735255970092317,-0.05790798809796292
0.01846341649500267,-0.050019073777370866
0.02652018005645838,-0.04515144579232471
0.027862973983367664,-0.043808651865415424
0.024505989166094453,-0.03843747615777828
0.024505989166094453,-0.03189135576409552
0.025177386129549097,-0.028702220187685965
0.024841687647821773,-0.027695124742504008
0.0157778286411841,-0.02584878309300374
0.01846341649500267,-0.02366674296177615
0.015106431677729458,-0.020981155107957578
0.005706874189364461,-0.017288471808957043
0.0023498893720912484,-0.011413748378728923
-0.0030212863355458916,-0.0052033264667734795
-0.009735255970092317,0.001846341649500267
-0.012420843823910887,0.006881818875410085
-0.01376363775082017,0.006881818875410085
-0.006042572671091783,0.0021820401312275884
0.0050354772259098195,-0.0055390249485008005
0.013092240787365528,-0.01359578850995651
0.009063859006637675,-0.01628137636377508
0.0023498893720912484,-0.014267185473411156
0.007721065079728388,-0.013931486991683832
0.003692683299000534,-0.01560997940032044
0.003356984817273213,-0.017624170290684367
0.010406652933546959,-0.021988250553139542
0.011078049897001601,-0.027023727779049357
0.014435034714274816,-0.03373769741359579
0.015106431677729458,-0.03843747615777828
0.010406652933546959,-0.04078736552986953
0.0016784924086366065,-0.044480048828870064
-0.0030212863355458916,-0.04750133516441596
-0.0003356984817273213,-0.053208209353780414
0.003692683299000534,-0.06327916380560006
0.0023498893720912484,-0.0703288319218738
0.0050354772259098195,-0.07402151522087433
0.007721065079728388,-0.07637140459296558
0.010070954451819639,-0.07486076142519264
0.009063859006637675,-0.06831464103150987
-0.0003356984817273213,-0.06025787747005417
-0.006042572671091783,-0.054551003280689715
-0.0003356984817273213,-0.05085831998168917
0.0010070954451819635,-0.050522621499961846
0.011078049897001601,-0.051865415426871134
0.017120622568093383,-0.048508430609597926
0.016784924086366067,-0.043808651865415424
0.017792019531548024,-0.03843747615777828
0.012420843823910887,-0.030716411078049892
0.012420843823910887,-0.024338139925230793
0.011749446860456245,-0.020309758144502935
0.013092240787365528,-0.019302662699320974
0.010406652933546959,-0.017792019531548024
-0.0030212863355458916,-0.012588693064774548
-0.0016784924086366065,-0.0035248340581368735
-0.0003356984817273213,0.005874723430228122
-0.004364080262455177,0.010238803692683297
-0.002014190890363927,0.005874723430228122
-0.005706874189364461,-0.003860532539864194
-0.0003356984817273213,-0.013931486991683832
0.0023498893720912484,-0.020645456626230255
0.003692683299000534,-0.02333104448004883
0.0050354772259098195,-0.024673838406958113
0.004364080262455177,-0.0260166323338674
0.009735255970092317,-0.030380712596322572
0.01812771801327535,-0.0387731746395056
0.023834592202639806,-0.044480048828870064
0.0157778286411841,-0.044480048828870064
0.004364080262455177,-0.04313725490196078
0.010406652933546959,-0.042465857938506144
0.01376363775082017,-0.043305104142824444
0.010406652933546959,-0.04615854123750667
0.007721065079728388,-0.050186923018234526
0.003356984817273213,-0.0528725108720531
-0.0016784924086366065,-0.05857938506141757
-0.006378271152819104,-0.06797894254978255
-0.0050354772259098195,-0.07637140459296558
-0.004364080262455177,-0.0750286106660563
-0.005706874189364461,-0.06730754558632791
-0.005706874189364461,-0.057236591134508276
-0.002014190890363927,-0.050522621499961846
-0.0003356984817273213,-0.04649423971923399
0.004364080262455177,-0.04313725490196078
0.006378271152819104,-0.04078736552986953
0.010406652933546959,-0.03927672236209659
0.012756542305638208,-0.03843747615777828
0.01846341649500267,-0.03474479285877775
0.019806210421911954,-0.028030823224231328
0.01846341649500267,-0.02366674296177615
0.019806210421911954,-0.022995345998321506
0.022827496757457846,-0.021652552071412222
0.019470511940184634,-0.014267185473411156
0.017792019531548024,-0.004531929503318838
0.015106431677729458,-0.0005035477225909818
0.012420843823910887,-0.0011749446860456242
0.009399557488364994,-0.001846341649500267
-0.0023498893720912484,-0.00016784924086366064
-0.022156099794003202,-0.00016784924086366064
-0.035919737544823374,-0.004196231021591517
-0.024505989166094453,-0.01326009002822919
-0.009735255970092317,-0.020981155107957578
-0.003692683299000534,-0.022156099794003202
-0.002014190890363927,-0.020309758144502935
0.007049668116273747,-0.02333104448004883
0.014435034714274816,-0.029709315632867935
0.019806210421911954,-0.035751888303959714
0.0157778286411841,-0.041123064011596856
0.0157778286411841,-0.044480048828870064
0.020813305867093918,-0.04783703364614328
0.022491798275730522,-0.051529716945143814
0.01913481345845731,-0.05790798809796292
0.014435034714274816,-0.06126497291523613
0.007721065079728388,-0.06462195773250935
0.007721065079728388,-0.06764324406805522
0.006378271152819104,-0.06831464103150987
0.011078049897001601,-0.07066453040360113
0.0050354772259098195,-0.07570000762951096
-0.0016784924086366065,-0.08039978637369342
-0.009735255970092317,-0.07570000762951096
-0.008392462043183033,-0.06260776684214542
-0.0016784924086366065,-0.048508430609597926
0.0023498893720912484,-0.04011596856641489
0.0023498893720912484,-0.03843747615777828
0.003692683299000534,-0.037094682230869
0.0023498893720912484,-0.03440909437705043
0.0023498893720912484,-0.02937361715114061
0.011749446860456245,-0.025680933852140077
0.011749446860456245,-0.020981155107957578
0.010406652933546959,-0.01628137636377508
0.0157778286411841,-0.017624170290684367
0.016784924086366067,-0.019638361181048294
0.016449225604638743,-0.01359578850995651
0.0157778286411841,0.00016784924086366064
0.017120622568093383,0.013931486991683832
0.0157778286411841,0.018631265735866327
0.014435034714274816,0.010574502174410621
0.014435034714274816,-0.00016784924086366064
0.007049668116273747,-0.006210421911955443
0.007721065079728388,-0.009567406729228655
0.0023498893720912484,-0.0157778286411841
-0.009735255970092317,-0.02366674296177615
-0.012420843823910887,-0.028702220187685965
-0.011078049897001601,-0.029709315632867935
-0.007049668116273747,-0.029037918669413288
-0.0010070954451819635,-0.027695124742504008
-0.0030212863355458916,-0.027359426260776684
0.0010070954451819635,-0.03121995880064088
