EMG Sensor 0,EMG Sensor 1
0.0,0.0
0.0,0.0
0.0,0.0
0.0,0.0
0.0,0.0
0.0,0.0
0.0,0.0
0.0,0.0
0.0,0.0
0.0,0.0
0.0,0.0
0.0,0.0
0.0,0.0
0.0,0.0
0.0,0.0
0.0,0.0
0.0,0.0
0.0,0.0
0.0,0.0
0.0,0.0
0.0,0.0
0.0,0.0
0.0,0.0
0.0,0.0
0.0,0.0
0.0,0.0
0.0,0.0
0.0,0.0
0.0,0.0
0.0,0.0
0.0,0.0
0.0,0.0
0.0,0.0
0.0,0.0
0.0,0.0
0.0,0.0
0.0,0.0
0.0,0.0
0.0,0.0
0.0,0.0
0.0,0.0
0.0,0.0
0.0,0.0
0.0,0.0
0.0,0.0
0.0,0.0
0.0,0.0
0.0,0.0
0.0,0.0
0.0,0.0
0.0,0.0
0.0,0.0
0.0,0.0
0.0,0.0
0.0,0.0
0.0,0.0
0.0,0.0
0.0,0.0
0.0,0.0
0.0,0.0
0.0,0.0
0.0,0.0
0.0,0.0
0.0,0.0
0.0,0.0
0.0,0.0
0.0,0.0
0.0,0.0
0.0,0.0
0.0,0.0
0.0,0.0
0.0,0.0
0.0,0.0
0.0,0.0
0.0,0.0
0.0,0.0
0.0,0.0
0.0,0.0
0.0,0.0
0.0,0.0
0.0,0.0
0.0,0.0
0.0,0.0
0.0,0.0
0.0,0.0
0.0,0.0
0.0,0.0
0.0,0.0
0.0,0.0
0.0,0.0
0.0,0.0
0.0,0.0
0.0,0.0
0.0,0.0
0.0,0.0
0.0,0.0
0.0,0.0
0.0,0.0
0.0,0.0
0.0,0.0
0.0,0.0
0.0,0.0
0.0,0.0
0.0,0.0
0.0,0.0
0.0,0.0
0.0,0.0
0.0,0.0
0.0,0.0
0.0,0.0
0.0,0.0
0.0,0.0
0.0,0.0
0.0,0.0
0.0,0.0
0.0,0.0
0.0,0.0
0.0,0.0
0.0,0.0
0.0,0.0
0.0,0.0
0.0,0.0
0.0,0.0
0.0,0.0
0.0,0.0
0.0,0.0
0.0,0.0
0.0,0.0
0.0,0.0
0.0,0.0
0.0,0.0
0.0,0.0
0.0,0.0
0.0,0.0
0.0,0.0
0.0,0.0
-0.0016784924086366065,0.0
0.011749446860456245,0.0
0.011749446860456245,0.0
0.017792019531548024,0.0
0.017120622568093383,0.0
0.013092240787365528,0.0
0.009063859006637675,0.0
0.006378271152819104,0.0
0.006378271152819104,0.0
0.0030212863355458916,0.0
-0.002014190890363927,0.0
-0.005706874189364461,0.0
-0.0030212863355458916,0.0
-0.0030212863355458916,0.0
-0.005706874189364461,0.0
-0.006378271152819104,0.0
-0.0050354772259098195,0.0
-0.006042572671091783,0.0
0.0016784924086366065,0.0
0.006378271152819104,0.0
0.006378271152819104,0.0
0.010406652933546959,0.0
0.011078049897001601,0.0
0.013092240787365528,0.0
0.01376363775082017,0.0
0.011078049897001601,0.0
0.012420843823910887,0.0
0.010406652933546959,0.0
0.006378271152819104,0.0
0.0050354772259098195,0.0
0.004364080262455177,0.0
0.0023498893720912484,0.0
0.0016784924086366065,0.0
-0.0010070954451819635,0.0
-0.0016784924086366065,0.0
-0.007049668116273747,0.0
-0.005706874189364461,0.0
-0.004364080262455177,0.0
-0.005706874189364461,0.0
-0.0003356984817273213,0.0
0.004364080262455177,0.0
0.005706874189364461,0.0
0.009063859006637675,0.0
0.007721065079728388,0.0
0.0050354772259098195,0.0
0.004364080262455177,0.0
0.004364080262455177,0.0
0.0050354772259098195,0.0
0.009063859006637675,0.0
0.009735255970092317,0.0
0.003692683299000534,0.0
0.004364080262455177,0.0
0.003692683299000534,0.0
0.0006713969634546426,0.0
-0.002014190890363927,0.0
-0.007385366598001068,0.0
-0.008392462043183033,0.0
-0.0050354772259098195,0.0
-0.005706874189364461,0.0
-0.0023498893720912484,0.0
0.003692683299000534,0.0
0.009063859006637675,0.0
0.007049668116273747,0.0
0.007049668116273747,0.0
0.005706874189364461,0.0
0.004699778744182497,0.0
0.007721065079728388,0.0
0.009735255970092317,0.0
0.012420843823910887,0.0
0.009735255970092317,0.0
0.004699778744182497,0.0
0.0050354772259098195,0.0
0.0050354772259098195,0.0
-0.0016784924086366065,0.0
-0.007049668116273747,0.0
-0.007049668116273747,0.0
-0.0050354772259098195,0.0
-0.003356984817273213,0.0
-0.0003356984817273213,0.0
-0.003692683299000534,0.0
-0.0016784924086366065,0.0
0.003692683299000534,0.0
0.009735255970092317,0.0
0.014435034714274816,0.0
0.011078049897001601,0.0
0.005706874189364461,0.0
0.006378271152819104,0.0
0.009063859006637675,0.0
0.011749446860456245,0.0
0.013092240787365528,0.0
0.010406652933546959,0.0
0.007721065079728388,0.0
0.0050354772259098195,0.0
0.0030212863355458916,0.0
0.003692683299000534,0.0
-0.0010070954451819635,0.0
-0.0016784924086366065,0.0
-0.0016784924086366065,0.0
-0.0030212863355458916,0.0
-0.005706874189364461,0.0
-0.004699778744182497,0.0
-0.002014190890363927,0.0
-0.0003356984817273213,0.0
0.003692683299000534,0.0
0.006378271152819104,0.0
0.010406652933546959,0.0
0.013092240787365528,0.0
0.013092240787365528,0.0
0.011078049897001601,0.0
0.010406652933546959,0.0
0.010406652933546959,0.0
0.011749446860456245,0.0
0.009063859006637675,0.0
0.005706874189364461,0.0
0.0010070954451819635,0.0
0.0010070954451819635,0.0
0.0023498893720912484,0.0
-0.0003356984817273213,0.0
-0.005706874189364461,0.0
-0.007721065079728388,0.0
-0.007049668116273747,-0.1777523460746166
-0.006378271152819104,-0.14586099031052108
-0.008392462043183033,-0.12135500114442664
-0.005706874189364461,-0.10356298161287861
0.0016784924086366065,-0.09315632867933166
0.005706874189364461,-0.08375677119096665
0.012420843823910887,-0.08476386663614863
0.011749446860456245,-0.10557717250324253
0.007721065079728388,-0.13109025711451894
0.0050354772259098195,-0.13310444800488286
0.007721065079728388,-0.10826276035706112
0.011078049897001601,-0.07267872129396505
0.006378271152819104,-0.0387731746395056
0.003692683299000534,-0.004196231021591517
0.0023498893720912484,0.03843747615777828
0.0016784924086366065,0.08039978637369342
0.0023498893720912484,0.10389868009460593
-0.004364080262455177,0.10775921263447012
-0.005706874189364461,0.09752040894178682
-0.005706874189364461,0.08375677119096665
-0.003356984817273213,0.07150377660791943
-0.0023498893720912484,0.06965743495841917
-0.0030212863355458916,0.0797283894102388
-0.005706874189364461,0.09047074082551307
-0.0050354772259098195,0.09584191653315023
0.0010070954451819635,0.09382772564278628
0.006378271152819104,0.08778515297169451
0.007049668116273747,0.0750286106660563
0.010406652933546959,0.055390249485008015
0.013092240787365528,0.02668802929732204
0.013092240787365528,-0.010910200656137941
0.013092240787365528,-0.051361867704280154
0.011078049897001601,-0.08879224841687647
0.010406652933546959,-0.12303349355306323
0.007049668116273747,-0.15962462806134128
0.0023498893720912484,-0.1935301747158007
0.0010070954451819635,-0.21266498817425802
-0.0006713969634546426,-0.20964370183871214
0.003692683299000534,-0.19252307927061874
-0.0003356984817273213,-0.1733882658121614
-0.004364080262455177,-0.1512321660181582
-0.006378271152819104,-0.12773327229724574
-0.005706874189364461,-0.10759136339360646
-0.005706874189364461,-0.09147783627069504
-0.0003356984817273213,-0.0800640878919661
0.0023498893720912484,-0.07737850003814756
0.003692683299000534,-0.09047074082551307
0.004699778744182497,-0.11464103150988021
0.009063859006637675,-0.12941176470588234
0.0157778286411841,-0.12068360418097199
0.015106431677729458,-0.09349202716105898
0.014435034714274816,-0.05992217898832684
0.012420843823910887,-0.025177386129549097
0.012085145342183566,0.01594567788204776
0.016449225604638743,0.06092927443350881
0.012420843823910887,0.09382772564278628
0.007721065079728388,0.10725566491187914
0.005706874189364461,0.1032272831311513
0.0003356984817273213,0.09114213778896772
0.0023498893720912484,0.07838559548332952
-0.0003356984817273213,0.07100022888532845
0.0003356984817273213,0.07737850003814756
-0.004699778744182497,0.0908064393072404
-0.004364080262455177,0.09752040894178682
-0.0016784924086366065,0.09349202716105898
-0.004364080262455177,0.08509956511787593
-0.005706874189364461,0.07536430914778362
0.0050354772259098195,0.06126497291523613
0.01376363775082017,0.03440909437705043
0.016449225604638743,-0.0015106431677729458
0.014099336232547494,-0.03944457160296025
0.009063859006637675,-0.06764324406805522
0.009735255970092317,-0.09147783627069504
0.0050354772259098195,-0.1257190814068818
0.003692683299000534,-0.16868848706797895
0.008392462043183033,-0.20494392309452963
0.007721065079728388,-0.21635767147325857
0.003692683299000534,-0.2056153200579843
-0.0003356984817273213,-0.17976653696498052
-0.0003356984817273213,-0.14955367360952163
0.0023498893720912484,-0.12370489051651787
0.0016784924086366065,-0.10591287098496985
0.0010070954451819635,-0.09819180590524147
-0.002014190890363927,-0.08879224841687647
-0.005706874189364461,-0.0800640878919661
-0.008392462043183033,-0.08039978637369342
-0.011078049897001601,-0.09852750438696878
-0.006378271152819104,-0.12101930266269931
0.0030212863355458916,-0.1257190814068818
0.007049668116273747,-0.11111619745174332
0.004699778744182497,-0.08426031891355765
0.007721065079728388,-0.04682993820096131
0.012420843823910887,-0.00016784924086366064
0.013092240787365528,0.05085831998168917
0.011749446860456245,0.09315632867933166
0.009735255970092317,0.11329823758297093
0.009063859006637675,0.11396963454642556
0.010406652933546959,0.10457007705806058
0.010406652933546959,0.09047074082551307
0.004699778744182497,0.07335011825741969
0.0050354772259098195,0.062272068360418105
0.004364080262455177,0.06915388723582817
-0.005706874189364461,0.0844281681544213
-0.008392462043183033,0.09651331349660487
-0.013092240787365528,0.0971847104600595
-0.015106431677729458,0.092484931715877
-0.010406652933546959,0.08543526359960325
-0.007049668116273747,0.06378271152819104
-0.005706874189364461,0.030045014114595252
-0.0003356984817273213,-0.012588693064774548
0.0050354772259098195,-0.051865415426871134
0.008728160524910353,-0.08107118333714809
0.010406652933546959,-0.10826276035706112
0.011749446860456245,-0.14586099031052108
0.014099336232547494,-0.1910124361028458
0.013092240787365528,-0.21904325932707713
0.012420843823910887,-0.21904325932707713
0.013092240787365528,-0.1977264057373922
0.012420843823910887,-0.17137407492179751
0.006042572671091783,-0.14955367360952163
-0.0016784924086366065,-0.13243305104142825
-0.005706874189364461,-0.11766231784542608
-0.007049668116273747,-0.10356298161287861
-0.009063859006637675,-0.09147783627069504
-0.010406652933546959,-0.08409246967269397
-0.005706874189364461,-0.0882887006942855
-0.0016784924086366065,-0.10893415732051576
-0.0023498893720912484,-0.12672617685206378
-0.0003356984817273213,-0.1253833829251545
0.0023498893720912484,-0.10255588616769665
0.007721065079728388,-0.0639505607690547
0.008392462043183033,-0.02400244144350347
0.009735255970092317,0.011917296101319903
0.009063859006637675,0.051865415426871134
0.012756542305638208,0.08946364538033112
0.015106431677729458,0.11262684061951626
0.009735255970092317,0.11497672999160755
0.010406652933546959,0.09987029831387809
0.010406652933546959,0.08039978637369342
0.009735255970092317,0.06462195773250935
0.0050354772259098195,0.06697184710460058
0.0010070954451819635,0.08174258030060273
-0.0016784924086366065,0.09584191653315023
-0.0010070954451819635,0.1032272831311513
-0.005706874189364461,0.10188448920424201
-0.009735255970092317,0.092484931715877
-0.007385366598001068,0.07167162584878309
-0.0030212863355458916,0.044480048828870064
-0.0003356984817273213,0.011245899137865261
-0.0030212863355458916,-0.02853437094682231
0.0016784924086366065,-0.06596475165941862
0.0050354772259098195,-0.09852750438696878
0.009735255970092317,-0.13142595559624626
0.009735255970092317,-0.17070267795834287
0.009735255970092317,-0.2056153200579843
0.009735255970092317,-0.21770046540016783
0.011749446860456245,-0.2029297322041657
0.012420843823910887,-0.17473105973907072
0.010406652933546959,-0.14888227664606699
0.014435034714274816,-0.12907606622415504
0.010406652933546959,-0.11245899137865262
0.006378271152819104,-0.09617761501487754
0.0023498893720912484,-0.08140688181887541
-0.0003356984817273213,-0.07536430914778362
-0.0003356984817273213,-0.08375677119096665
-0.0003356984817273213,-0.10759136339360646
-0.003356984817273213,-0.13243305104142825
-0.005706874189364461,-0.1359578850995651
-0.004364080262455177,-0.11229114213778896
-0.008392462043183033,-0.07469291218432898
-0.008392462043183033,-0.035751888303959714
-0.0030212863355458916,-0.0021820401312275884
0.0003356984817273213,0.03440909437705043
0.005706874189364461,0.07368581673914701
0.011078049897001601,0.10557717250324253
0.007385366598001068,0.11799801632715344
0.009063859006637675,0.1096055542839704
0.014435034714274816,0.08979934386205844
0.014435034714274816,0.06797894254978255
0.013092240787365528,0.06092927443350881
0.012085145342183566,0.07083237964446479
0.007721065079728388,0.0844281681544213
-0.0003356984817273213,0.09214923323414968
0.0016784924086366065,0.09365987640192262
0.0010070954451819635,0.09047074082551307
0.002014190890363927,0.07704280155642022
-0.0016784924086366065,0.05354390783550774
-0.002014190890363927,0.023834592202639806
-0.0003356984817273213,-0.010910200656137941
-0.003692683299000534,-0.04582284275577936
-0.004364080262455177,-0.07905699244678416
-0.0016784924086366065,-0.11094834821087966
-0.0003356984817273213,-0.14854657816433967
0.005706874189364461,-0.18648050659952697
0.006378271152819104,-0.20914015411612116
0.009063859006637675,-0.21165789272907606
0.006378271152819104,-0.2002441443503471
0.0050354772259098195,-0.17943083848325322
0.007049668116273747,-0.15794613565270463
0.011749446860456245,-0.13243305104142825
0.010406652933546959,-0.1079270618753338
0.009735255970092317,-0.09013504234378575
0.003356984817273213,-0.08107118333714809
0.0050354772259098195,-0.08157473105973906
0.007721065079728388,-0.09282063019760432
0.007721065079728388,-0.11783016708628975
0.002014190890363927,-0.1347829404135195
-0.0003356984817273213,-0.12454413672083621
-0.0006713969634546426,-0.09315632867933166
-0.005706874189364461,-0.057236591134508276
-0.008392462043183033,-0.024673838406958113
-0.010406652933546959,0.012588693064774548
-0.007049668116273747,0.05589379720759898
-0.003692683299000534,0.09382772564278628
-0.0003356984817273213,0.11396963454642556
0.003692683299000534,0.11329823758297093
0.011078049897001601,0.10054169527733271
0.015106431677729458,0.0800640878919661
0.011749446860456245,0.06260776684214542
0.011078049897001601,0.05958648050659952
0.011749446860456245,0.07318226901655604
0.009063859006637675,0.09181353475242236
0.004364080262455177,0.09953459983215075
-0.0003356984817273213,0.09449912260624094
0.0023498893720912484,0.08308537422751203
-0.0003356984817273213,0.06898603799496453
-0.0003356984817273213,0.04615854123750667
0.0010070954451819635,0.00788891432059205
-0.0003356984817273213,-0.03978027008468757
-0.004364080262455177,-0.08207827878233005
-0.005706874189364461,-0.11161974517433432
-0.003692683299000534,-0.13612573434042877
-0.0010070954451819635,-0.16801709010452429
-0.0003356984817273213,-0.20091554131380177
0.0010070954451819635,-0.21904325932707713
0.004364080262455177,-0.21434348058289462
0.006378271152819104,-0.19084458686198216
0.013092240787365528,-0.16466010528725106
0.0157778286411841,-0.1411612115663386
0.01376363775082017,-0.12034790569924468
0.012420843823910887,-0.10238803692683297
0.013092240787365528,-0.0891279468986038
0.013092240787365528,-0.08543526359960325
0.008392462043183033,-0.08946364538033112
0.003692683299000534,-0.10826276035706112
0.0023498893720912484,-0.1292439154650187
0.0003356984817273213,-0.13310444800488286
-0.0010070954451819635,-0.11262684061951626
-0.007385366598001068,-0.0780498970016022
-0.004364080262455177,-0.044480048828870064
-0.003692683299000534,-0.011917296101319903
-0.0030212863355458916,0.027862973983367664
-0.003692683299000534,0.06831464103150987
-0.0023498893720912484,0.10054169527733271
-0.0003356984817273213,0.11396963454642556
-0.0010070954451819635,0.1065842679484245
0.003692683299000534,0.08946364538033112
0.006378271152819104,0.07234302281223774
0.007721065079728388,0.06965743495841917
0.009063859006637675,0.08107118333714809
0.007721065079728388,0.08946364538033112
0.010406652933546959,0.09315632867933166
0.010406652933546959,0.09382772564278628
0.008392462043183033,0.09349202716105898
0.008728160524910353,0.0861066605630579
0.009735255970092317,0.064789806973373
0.003692683299000534,0.03054856183718624
0.002014190890363927,-0.01292439154650187
0.0010070954451819635,-0.053208209353780414
-0.0016784924086366065,-0.08476386663614863
-0.0030212863355458916,-0.11229114213778896
-0.0016784924086366065,-0.1445181963836118
-0.005706874189364461,-0.1802700846875715
-0.008392462043183033,-0.20628671702143891
-0.007049668116273747,-0.21635767147325857
-0.008392462043183033,-0.21031509880216676
-0.002014190890363927,-0.1901731898985275
0.0030212863355458916,-0.16197451743343252
0.002014190890363927,-0.1317616540779736
0.007721065079728388,-0.10641641870756083
0.011749446860456245,-0.08896009765774013
0.012420843823910887,-0.08274967574578469
0.013092240787365528,-0.08274967574578469
0.012756542305638208,-0.09349202716105898
0.013092240787365528,-0.11396963454642556
0.012756542305638208,-0.1284046692607004
0.012420843823910887,-0.12303349355306323
0.0050354772259098195,-0.0988632028686961
-0.0003356984817273213,-0.06546120393682765
0.0010070954451819635,-0.03105210955977722
0.002014190890363927,0.011581597619592583
-0.005706874189364461,0.05622949568932631
-0.005706874189364461,0.08644235904478523
-0.0003356984817273213,0.10121309224078735
-0.002014190890363927,0.10255588616769665
-0.0016784924086366065,0.09701686121919585
0.0003356984817273213,0.0861066605630579
0.0030212863355458916,0.07536430914778362
0.005706874189364461,0.0750286106660563
0.006378271152819104,0.08577096208133059
0.003692683299000534,0.09584191653315023
0.0010070954451819635,0.0971847104600595
0.003356984817273213,0.09752040894178682
0.007385366598001068,0.0955062180514229
0.007721065079728388,0.08174258030060273
0.010406652933546959,0.056900892652780956
0.011413748378728923,0.020645456626230255
0.011749446860456245,-0.01913481345845731
0.0050354772259098195,-0.056900892652780956
0.0030212863355458916,-0.08879224841687647
0.003692683299000534,-0.11866941329060808
0.0023498893720912484,-0.15391775387197681
-0.0016784924086366065,-0.18715190356298161
-0.006378271152819104,-0.20846875715266647
-0.008392462043183033,-0.21031509880216676
-0.0030212863355458916,-0.19554436560616464
-0.0016784924086366065,-0.17238117036697947
-0.0016784924086366065,-0.1445181963836118
0.0023498893720912484,-0.11766231784542608
0.010406652933546959,-0.09684901197833219
0.0050354772259098195,-0.08342107270923933
0.009063859006637675,-0.07167162584878309
0.01376363775082017,-0.06764324406805522
0.011749446860456245,-0.0861066605630579
0.009399557488364994,-0.11799801632715344
0.005706874189364461,-0.13344014648661018
0.007385366598001068,-0.12336919203479056
0.011749446860456245,-0.09013504234378575
0.013092240787365528,-0.048508430609597926
0.010406652933546959,-0.008224612802319372
0.006378271152819104,0.03373769741359579
0.003692683299000534,0.07133592736705577
-0.0016784924086366065,0.09684901197833219
-0.0003356984817273213,0.10389868009460593
-0.003692683299000534,0.10054169527733271
-0.010406652933546959,0.09181353475242236
-0.009399557488364994,0.07771419851987486
-0.0016784924086366065,0.06697184710460058
-0.0023498893720912484,0.06747539482719157
0.0023498893720912484,0.07905699244678416
0.007721065079728388,0.08744945448996719
0.007721065079728388,0.08778515297169451
0.008392462043183033,0.08509956511787593
0.010406652933546959,0.07905699244678416
0.009063859006637675,0.06411841000991834
0.010070954451819639,0.03205920500495917
0.010406652933546959,-0.008896009765774012
0.012756542305638208,-0.049347676813916226
0.011078049897001601,-0.07905699244678416
0.009063859006637675,-0.10222018768596933
0.003692683299000534,-0.13310444800488286
0.0030212863355458916,-0.1696955825131609
-0.0003356984817273213,-0.19688715953307392
-0.004364080262455177,-0.20057984283207447
-0.0050354772259098195,-0.18580910963607233
-0.0030212863355458916,-0.16633859769588769
-0.004699778744182497,-0.15207141222247655
-0.004364080262455177,-0.1364614328221561
-0.0016784924086366065,-0.12202639810788128
-0.004028381780727854,-0.10457007705806058
-0.0030212863355458916,-0.08543526359960325
-0.0003356984817273213,-0.07637140459296558
0.004699778744182497,-0.08677805752651253
0.007049668116273747,-0.11430533302815289
0.0050354772259098195,-0.13713282978561073
0.0050354772259098195,-0.1359578850995651
0.008728160524910353,-0.10490577553978789
0.009735255970092317,-0.061936369878690785
0.007721065079728388,-0.026352330815594724
0.006378271152819104,0.009231708247501335
0.006378271152819104,0.04666208896009766
0.003692683299000534,0.08308537422751203
-0.0003356984817273213,0.10423437857633323
0.0010070954451819635,0.10725566491187914
-0.0003356984817273213,0.09987029831387809
0.0023498893720912484,0.08543526359960325
0.0023498893720912484,0.07335011825741969
-0.0030212863355458916,0.07183947508964675
-0.008392462043183033,0.08107118333714809
-0.003692683299000534,0.0908064393072404
-0.0010070954451819635,0.0955062180514229
0.003692683299000534,0.09651331349660487
0.006378271152819104,0.092484931715877
0.0050354772259098195,0.07905699244678416
0.003692683299000534,0.05304036011291676
0.0023498893720912484,0.017624170290684367
0.007049668116273747,-0.02400244144350347
0.009063859006637675,-0.06680399786373693
0.009735255970092317,-0.10691996643015184
0.014435034714274816,-0.14283970397497517
0.015106431677729458,-0.17875944151979858
0.010406652933546959,-0.20494392309452963
0.007721065079728388,-0.2099794003204395
0.0023498893720912484,-0.19688715953307392
0.002014190890363927,-0.18010223544670784
0.0010070954451819635,-0.166674296177615
-0.0003356984817273213,-0.1508964675364309
-0.004364080262455177,-0.13209735255970093
-0.007721065079728388,-0.10826276035706112
-0.007049668116273747,-0.08476386663614863
-0.007049668116273747,-0.07267872129396505
-0.006378271152819104,-0.0750286106660563
-0.004699778744182497,-0.09651331349660487
-0.0003356984817273213,-0.12034790569924468
0.007721065079728388,-0.12974746318760969
0.014435034714274816,-0.11699092088197145
0.01376363775082017,-0.08778515297169451
0.010406652933546959,-0.051529716945143814
0.009063859006637675,-0.010406652933546959
0.012756542305638208,0.033401998931868467
0.012420843823910887,0.07368581673914701
0.010406652933546959,0.10037384603646905
0.007721065079728388,0.10859845883878842
0.0050354772259098195,0.10725566491187914
-0.0010070954451819635,0.09701686121919585
-0.0016784924086366065,0.0800640878919661
-0.004364080262455177,0.07100022888532845
-0.003692683299000534,0.07872129396505684
-0.006378271152819104,0.09181353475242236
-0.009735255970092317,0.09617761501487754
-0.0030212863355458916,0.08694590676737621
0.0003356984817273213,0.0750286106660563
-0.0003356984817273213,0.06428625925078202
0.004028381780727854,0.05589379720759898
0.0050354772259098195,0.042298008697642483
0.007721065079728388,0.010910200656137941
0.012420843823910887,-0.032730601968413826
0.011749446860456245,-0.07872129396505684
0.010406652933546959,-0.11833371480888075
0.010406652933546959,-0.1552605477988861
0.007721065079728388,-0.18782330052643625
0.007049668116273747,-0.20494392309452963
0.009735255970092317,-0.2059510185397116
0.007049668116273747,-0.19621576256961928
0.0023498893720912484,-0.18245212481879908
0.0010070954451819635,-0.16298161287861446
-0.0016784924086366065,-0.14048981460288396
-0.0010070954451819635,-0.11833371480888075
-0.0030212863355458916,-0.0988632028686961
-0.006378271152819104,-0.08476386663614863
-0.007049668116273747,-0.0767071030746929
-0.007049668116273747,-0.08711375600823987
-0.005706874189364461,-0.11296253910124363
-0.0016784924086366065,-0.1351186388952468
0.0023498893720912484,-0.13310444800488286
0.0050354772259098195,-0.10423437857633323
0.008392462043183033,-0.06764324406805522
0.011749446860456245,-0.03474479285877775
0.014435034714274816,0.001846341649500267
0.0157778286411841,0.04783703364614328
0.013092240787365528,0.0882887006942855
0.010406652933546959,0.10759136339360646
0.012085145342183566,0.10373083085374227
0.011413748378728923,0.08979934386205844
0.009735255970092317,0.07435721370260165
0.007721065079728388,0.06630045014114595
0.004364080262455177,0.07200732433051041
0.003356984817273213,0.08577096208133059
0.0023498893720912484,0.09584191653315023
-0.0016784924086366065,0.09416342412451362
-0.006378271152819104,0.08744945448996719
-0.005706874189364461,0.07838559548332952
-0.006378271152819104,0.06965743495841917
-0.003692683299000534,0.05622949568932631
-0.0023498893720912484,0.028366521705958644
-0.0003356984817273213,-0.01292439154650187
0.003692683299000534,-0.060593575951781484
0.003692683299000534,-0.10255588616769665
0.0050354772259098195,-0.13528648813611044
0.006378271152819104,-0.16768139162279697
0.006378271152819104,-0.19688715953307392
0.0050354772259098195,-0.21300068665598534
0.0050354772259098195,-0.2076295109483482
0.007049668116273747,-0.19285877775234606
0.009735255970092317,-0.17640955214770732
0.008392462043183033,-0.15593194476234074
0.007721065079728388,-0.12974746318760969
0.008392462043183033,-0.10222018768596933
0.007049668116273747,-0.08342107270923933
0.0050354772259098195,-0.07435721370260165
0.005706874189364461,-0.07335011825741969
0.007049668116273747,-0.08778515297169451
0.0023498893720912484,-0.11161974517433432
-0.0003356984817273213,-0.1270618753337911
-0.005706874189364461,-0.12303349355306323
-0.010406652933546959,-0.09684901197833219
-0.006042572671091783,-0.05790798809796292
-0.0023498893720912484,-0.013931486991683832
0.0023498893720912484,0.032898451209277486
0.006378271152819104,0.0780498970016022
0.006378271152819104,0.10859845883878842
0.011413748378728923,0.11699092088197145
0.011749446860456245,0.10926985580224306
0.0157778286411841,0.09097428854810408
0.014435034714274816,0.07637140459296558
0.013092240787365528,0.07368581673914701
0.011078049897001601,0.08241397726405737
0.007721065079728388,0.09433127336537728
-0.0003356984817273213,0.09584191653315023
-0.009735255970092317,0.092484931715877
-0.012756542305638208,0.08845654993514916
-0.009063859006637675,0.08157473105973906
-0.009063859006637675,0.06730754558632791
-0.007049668116273747,0.04414435034714275
-0.009063859006637675,0.010910200656137941
-0.012420843823910887,-0.03457694361791409
-0.006378271152819104,-0.07905699244678416
0.0010070954451819635,-0.11699092088197145
0.009063859006637675,-0.14854657816433967
0.011749446860456245,-0.17943083848325322
0.011749446860456245,-0.20494392309452963
0.013092240787365528,-0.21367208361943996
0.011078049897001601,-0.20494392309452963
0.011749446860456245,-0.18547341115434499
0.012756542305638208,-0.16130312046997786
0.008392462043183033,-0.14015411612115664
0.010406652933546959,-0.12370489051651787
0.012420843823910887,-0.10691996643015184
0.011749446860456245,-0.09013504234378575
0.010406652933546959,-0.07536430914778362
0.007721065079728388,-0.07570000762951096
0.007049668116273747,-0.09819180590524147
-0.0016784924086366065,-0.12236209658960862
-0.007049668116273747,-0.12974746318760969
-0.005706874189364461,-0.11229114213778896
-0.009735255970092317,-0.08207827878233005
-0.008392462043183033,-0.043305104142824444
-0.0023498893720912484,0.0025177386129549098
-0.0003356984817273213,0.050522621499961846
0.0003356984817273213,0.08963149462119477
0.0050354772259098195,0.10843060959792476
0.0050354772259098195,0.11094834821087966
0.007721065079728388,0.10423437857633323
0.009063859006637675,0.09047074082551307
0.009063859006637675,0.07771419851987486
0.011749446860456245,0.07402151522087433
0.010406652933546959,0.08342107270923933
0.010406652933546959,0.08946364538033112
0.007721065079728388,0.08845654993514916
0.0023498893720912484,0.08409246967269397
0.0023498893720912484,0.07905699244678416
-0.0023498893720912484,0.07167162584878309
-0.008392462043183033,0.05673304341191729
-0.010406652933546959,0.029037918669413288
-0.014435034714274816,-0.012588693064774548
-0.013092240787365528,-0.05555809872587166
-0.009735255970092317,-0.08979934386205844
-0.007049668116273747,-0.12437628747997252
-0.003692683299000534,-0.1693598840314336
-0.0016784924086366065,-0.20863660639353018
0.003692683299000534,-0.22374303807125961
0.009735255970092317,-0.21300068665598534
0.008728160524910353,-0.19084458686198216
0.009063859006637675,-0.1693598840314336
0.007721065079728388,-0.14720378423743039
0.007721065079728388,-0.12672617685206378
0.013092240787365528,-0.10826276035706112
0.0157778286411841,-0.092484931715877
0.014435034714274816,-0.0767071030746929
0.012420843823910887,-0.06428625925078202
0.007385366598001068,-0.07234302281223774
0.0023498893720912484,-0.09819180590524147
-0.0010070954451819635,-0.12236209658960862
-0.0030212863355458916,-0.12034790569924468
-0.005706874189364461,-0.09416342412451362
-0.006378271152819104,-0.05656519417105363
-0.004364080262455177,-0.014267185473411156
-0.0030212863355458916,0.03172350652323186
-0.0030212863355458916,0.07838559548332952
0.0010070954451819635,0.10826276035706112
0.003356984817273213,0.11396963454642556
0.003356984817273213,0.1032272831311513
0.005706874189364461,0.08929579613946745
0.007721065079728388,0.07905699244678416
0.010406652933546959,0.07368581673914701
0.012756542305638208,0.07905699244678416
0.011749446860456245,0.09214923323414968
0.008392462043183033,0.10423437857633323
0.010406652933546959,0.1079270618753338
0.01376363775082017,0.09835965514610515
0.009063859006637675,0.08039978637369342
0.004364080262455177,0.06160067139696345
0.003692683299000534,0.03944457160296025
0.0010070954451819635,0.009231708247501335
-0.0016784924086366065,-0.029205767910276948
-0.003692683299000534,-0.06865033951323721
-0.0030212863355458916,-0.10289158464942397
-0.003692683299000534,-0.14334325169756618
-0.005706874189364461,-0.18815899900816355
-0.007721065079728388,-0.22139314869916837
-0.007049668116273747,-0.22575722896162354
-0.003356984817273213,-0.2059510185397116
0.004364080262455177,-0.18043793392843518
0.008392462043183033,-0.1586175326161593
0.010406652933546959,-0.1420004577706569
0.011078049897001601,-0.12504768444342718
0.011749446860456245,-0.10691996643015184
0.010406652933546959,-0.09047074082551307
0.010070954451819639,-0.07872129396505684
0.017120622568093383,-0.07821774624246586
0.0157778286411841,-0.0971847104600595
0.012420843823910887,-0.12504768444342718
0.009063859006637675,-0.13881132219424736
0.007721065079728388,-0.12303349355306323
0.0023498893720912484,-0.08476386663614863
-0.0006713969634546426,-0.035416189822232394
-0.0010070954451819635,0.011917296101319903
-0.0030212863355458916,0.0528725108720531
-0.007385366598001068,0.08543526359960325
-0.006042572671091783,0.1032272831311513
-0.005706874189364461,0.10557717250324253
-0.008392462043183033,0.09449912260624094
-0.003356984817273213,0.0750286106660563
0.005706874189364461,0.062272068360418105
0.008392462043183033,0.06361486228732739
0.012756542305638208,0.08039978637369342
0.011749446860456245,0.09684901197833219
0.011749446860456245,0.10238803692683297
0.011078049897001601,0.09953459983215075
0.011749446860456245,0.08761730373083085
0.013092240787365528,0.07100022888532845
0.011749446860456245,0.0473334859235523
0.010406652933546959,0.018631265735866327
0.007721065079728388,-0.012588693064774548
0.006042572671091783,-0.048676279850461586
-0.0016784924086366065,-0.08543526359960325
-0.007049668116273747,-0.12504768444342718
-0.0050354772259098195,-0.16398870832379644
-0.008392462043183033,-0.19688715953307392
-0.003692683299000534,-0.21232928969253068
-0.0016784924086366065,-0.20796520943007551
-0.004699778744182497,-0.19218738078889144
-0.0030212863355458916,-0.17019913023575187
-0.0016784924086366065,-0.14955367360952163
0.0023498893720912484,-0.13327229724574652
0.007049668116273747,-0.12068360418097199
0.006378271152819104,-0.10457007705806058
0.010406652933546959,-0.08543526359960325
0.007721065079728388,-0.07536430914778362
0.007721065079728388,-0.08644235904478523
0.012756542305638208,-0.11430533302815289
0.012420843823910887,-0.13411154345006485
0.012420843823910887,-0.12773327229724574
0.009735255970092317,-0.09953459983215075
0.0023498893720912484,-0.06730754558632791
0.0010070954451819635,-0.03373769741359579
-0.004364080262455177,0.008896009765774012
-0.003356984817273213,0.06109712367437248
-0.0010070954451819635,0.10305943389028763
-0.007049668116273747,0.11833371480888075
-0.007049668116273747,0.11128404669260701
-0.007049668116273747,0.08963149462119477
-0.006378271152819104,0.06764324406805522
-0.005706874189364461,0.056900892652780956
0.0010070954451819635,0.06697184710460058
0.003692683299000534,0.08896009765774013
0.006378271152819104,0.10389868009460593
0.0023498893720912484,0.1057450217441062
0.006378271152819104,0.09517051956969558
0.01376363775082017,0.08107118333714809
0.010406652933546959,0.06462195773250935
0.010406652933546959,0.042801556420233464
0.011749446860456245,0.010574502174410621
0.011749446860456245,-0.030045014114595252
0.011749446860456245,-0.06898603799496453
0.006378271152819104,-0.10591287098496985
0.0010070954451819635,-0.14586099031052108
-0.0016784924086366065,-0.18547341115434499
-0.0016784924086366065,-0.2076295109483482
-0.004364080262455177,-0.20628671702143891
-0.005706874189364461,-0.19084458686198216
-0.0030212863355458916,-0.17540245670252536
-0.0010070954451819635,-0.15996032654306858
-0.003692683299000534,-0.13931486991683834
-0.0003356984817273213,-0.11665522240024415
0.003692683299000534,-0.09953459983215075
0.004699778744182497,-0.09147783627069504
0.010406652933546959,-0.08560311284046693
0.01376363775082017,-0.0861066605630579
0.010070954451819639,-0.09819180590524147
0.009735255970092317,-0.11430533302815289
0.012756542305638208,-0.12034790569924468
0.013092240787365528,-0.10490577553978789
0.015106431677729458,-0.0780498970016022
0.011749446860456245,-0.044647898069733724
0.009063859006637675,-0.008224612802319372
0.008392462043183033,0.0362554360265507
0.006042572671091783,0.08207827878233005
0.0010070954451819635,0.11195544365606165
-0.003692683299000534,0.11665522240024415
-0.008728160524910353,0.09835965514610515
-0.01376363775082017,0.0767071030746929
-0.016784924086366067,0.06596475165941862
-0.01376363775082017,0.06999313344014649
-0.009735255970092317,0.08711375600823987
-0.007049668116273747,0.10356298161287861
-0.0003356984817273213,0.10994125276569772
0.0050354772259098195,0.10255588616769665
0.007721065079728388,0.08761730373083085
0.0050354772259098195,0.07016098268101013
0.009063859006637675,0.052201113908598454
0.007721065079728388,0.032730601968413826
0.007721065079728388,0.0016784924086366065
0.009063859006637675,-0.03978027008468757
0.013092240787365528,-0.08140688181887541
0.01913481345845731,-0.11699092088197145
0.014099336232547494,-0.1525749599450675
0.007721065079728388,-0.18765545128557257
0.007385366598001068,-0.21451132982375828
0.0023498893720912484,-0.22072175173571373
0.0010070954451819635,-0.2056153200579843
0.0023498893720912484,-0.1774166475928893
-0.005706874189364461,-0.14938582436865797
-0.007049668116273747,-0.1257190814068818
-0.0050354772259098195,-0.10524147402151522
-0.007049668116273747,-0.092484931715877
-0.0050354772259098195,-0.08241397726405737
0.0010070954451819635,-0.07637140459296558
0.007721065079728388,-0.08274967574578469
0.010070954451819639,-0.09953459983215075
0.011749446860456245,-0.11631952391851681
0.012756542305638208,-0.11866941329060808
0.013092240787365528,-0.10121309224078735
0.009063859006637675,-0.06831464103150987
0.009735255970092317,-0.028702220187685965
0.013092240787365528,0.01594567788204776
0.012420843823910887,0.061432822156099784
0.009063859006637675,0.0971847104600595
0.007049668116273747,0.11380178530556191
0.0023498893720912484,0.10994125276569772
0.0016784924086366065,0.09382772564278628
0.0010070954451819635,0.0750286106660563
-0.003356984817273213,0.06680399786373693
-0.005706874189364461,0.07905699244678416
-0.007049668116273747,0.09752040894178682
-0.011078049897001601,0.1065842679484245
-0.009735255970092317,0.1032272831311513
-0.006042572671091783,0.09651331349660487
-0.0023498893720912484,0.0891279468986038
0.0030212863355458916,0.07284657053482871
0.005706874189364461,0.04145876249332417
0.007721065079728388,0.0010070954451819635
0.009735255970092317,-0.04145876249332417
0.0050354772259098195,-0.07570000762951096
0.007721065079728388,-0.10222018768596933
0.014435034714274816,-0.13243305104142825
0.014435034714274816,-0.17036697947661553
0.012420843823910887,-0.20628671702143891
0.011413748378728923,-0.2203860532539864
0.007721065079728388,-0.21132219424734877
0.002014190890363927,-0.18883039597161821
-0.0003356984817273213,-0.16264591439688714
-0.004364080262455177,-0.13780422674906534
-0.008728160524910353,-0.11866941329060808
-0.009063859006637675,-0.10524147402151522
-0.007049668116273747,-0.09416342412451362
-0.008392462043183033,-0.08409246967269397
-0.006378271152819104,-0.0800640878919661
-0.0030212863355458916,-0.09584191653315023
-0.0003356984817273213,-0.12135500114442664
0.004364080262455177,-0.13192950331883724
0.006378271152819104,-0.11833371480888075
0.010070954451819639,-0.09013504234378575
0.010406652933546959,-0.060593575951781484
0.011749446860456245,-0.02366674296177615
0.009063859006637675,0.02584878309300374
0.011749446860456245,0.0750286106660563
0.017792019531548024,0.10591287098496985
0.019470511940184634,0.11195544365606165
0.019806210421911954,0.1032272831311513
0.016449225604638743,0.08979934386205844
0.007049668116273747,0.07301441977569237
0.0010070954451819635,0.061936369878690785
-0.0016784924086366065,0.06965743495841917
-0.0023498893720912484,0.08543526359960325
-0.0016784924086366065,0.09785610742351414
-0.004364080262455177,0.1032272831311513
-0.009735255970092317,0.09936675059128709
-0.012420843823910887,0.08509956511787593
-0.012420843823910887,0.05958648050659952
-0.006378271152819104,0.028702220187685965
0.0010070954451819635,-0.009063859006637675
0.0010070954451819635,-0.044480048828870064
0.006042572671091783,-0.07083237964446479
0.009735255970092317,-0.09987029831387809
0.012420843823910887,-0.14048981460288396
0.011749446860456245,-0.1874876020447089
0.009735255970092317,-0.21803616388189515
0.013092240787365528,-0.2239108873121233
0.015442130159456776,-0.21031509880216676
0.01376363775082017,-0.18312352178225372
0.007049668116273747,-0.15190356298161287
-0.0003356984817273213,-0.12639047837033646
-0.004364080262455177,-0.11094834821087966
-0.009063859006637675,-0.10154879072251469
-0.010070954451819639,-0.09114213778896772
-0.012420843823910887,-0.08207827878233005
-0.010406652933546959,-0.08476386663614863
-0.007049668116273747,-0.1032272831311513
-0.004364080262455177,-0.12001220721751735
-0.0030212863355458916,-0.11699092088197145
0.0023498893720912484,-0.09416342412451362
0.007049668116273747,-0.06126497291523613
0.010070954451819639,-0.026352330815594724
0.009063859006637675,0.008560311284046692
0.012756542305638208,0.048508430609597926
0.009063859006637675,0.08577096208133059
0.010406652933546959,0.11161974517433432
0.013092240787365528,0.11564812695506219
0.01376363775082017,0.09953459983215075
0.017120622568093383,0.07872129396505684
0.017120622568093383,0.06092927443350881
0.012420843823910887,0.05824368657969024
0.0050354772259098195,0.06932173647669183
0.0010070954451819635,0.08509956511787593
-0.007049668116273747,0.09517051956969558
-0.01376363775082017,0.0955062180514229
-0.005706874189364461,0.08627450980392155
-0.003692683299000534,0.06529335469596398
-0.0030212863355458916,0.0379339284351873
-0.0003356984817273213,0.0052033264667734795
-0.0010070954451819635,-0.03138780804150454
0.0023498893720912484,-0.06495765621423667
0.007721065079728388,-0.09365987640192262
0.011749446860456245,-0.1257190814068818
0.011749446860456245,-0.16768139162279697
0.011749446860456245,-0.20729381246662087
0.012420843823910887,-0.223071641107805
0.013092240787365528,-0.20964370183871214
0.016449225604638743,-0.18010223544670784
0.017120622568093383,-0.15190356298161287
0.014435034714274816,-0.1317616540779736
0.009063859006637675,-0.11430533302815289
0.003356984817273213,-0.0955062180514229
-0.0003356984817273213,-0.07872129396505684
0.0010070954451819635,-0.06965743495841917
-0.0023498893720912484,-0.0767071030746929
-0.007049668116273747,-0.0971847104600595
-0.009735255970092317,-0.11833371480888075
-0.008392462043183033,-0.12236209658960862
-0.009063859006637675,-0.10389868009460593
-0.007049668116273747,-0.07301441977569237
-0.0030212863355458916,-0.03776607919432364
-0.0030212863355458916,-0.004196231021591517
-0.0010070954451819635,0.03205920500495917
0.003692683299000534,0.06680399786373693
0.010406652933546959,0.09651331349660487
0.011078049897001601,0.11396963454642556
0.013092240787365528,0.11229114213778896
0.014435034714274816,0.09349202716105898
0.013092240787365528,0.06663614862287326
0.010406652933546959,0.054551003280689715
0.009399557488364994,0.06529335469596398
0.006378271152819104,0.08627450980392155
0.0050354772259098195,0.10054169527733271
0.004364080262455177,0.09919890135042343
-0.0003356984817273213,0.092484931715877
-0.0030212863355458916,0.07939269092851148
-0.003692683299000534,0.057572289616235596
-0.005706874189364461,0.02668802929732204
-0.008392462043183033,-0.009903105210955977
-0.007721065079728388,-0.04582284275577936
-0.004699778744182497,-0.07603570611123828
-0.003692683299000534,-0.1079270618753338
-0.0010070954451819635,-0.147875181200885
0.0023498893720912484,-0.18950179293507285
0.005706874189364461,-0.2150148775463493
0.007721065079728388,-0.21635767147325857
0.007721065079728388,-0.20695811398489355
0.009735255970092317,-0.1915159838254368
0.011413748378728923,-0.1700312809948882
0.014435034714274816,-0.1411612115663386
0.011413748378728923,-0.11363393606469825
0.010406652933546959,-0.09517051956969558
0.009735255970092317,-0.08342107270923933
0.0010070954451819635,-0.08073548485542076
-0.002014190890363927,-0.09013504234378575
-0.0006713969634546426,-0.11430533302815289
0.0010070954451819635,-0.1304188601510643
0.0016784924086366065,-0.12269779507133592
-0.0003356984817273213,-0.09835965514610515
-0.004364080262455177,-0.06730754558632791
-0.009735255970092317,-0.035416189822232394
-0.008392462043183033,0.003189135576409552
-0.0030212863355458916,0.04783703364614328
0.0006713969634546426,0.08845654993514916
0.006042572671091783,0.11329823758297093
0.007721065079728388,0.11531242847333485
0.010406652933546959,0.10188448920424201
0.013092240787365528,0.08174258030060273
0.010406652933546959,0.06680399786373693
0.011749446860456245,0.06797894254978255
0.014435034714274816,0.08426031891355765
0.013092240787365528,0.10054169527733271
0.011413748378728923,0.10457007705806058
0.012420843823910887,0.09617761501487754
0.007721065079728388,0.08140688181887541
0.0023498893720912484,0.06697184710460058
-0.0003356984817273213,0.05085831998168917
-0.0003356984817273213,0.022995345998321506
-0.003692683299000534,-0.021652552071412222
-0.006378271152819104,-0.06462195773250935
-0.006042572671091783,-0.09819180590524147
-0.007385366598001068,-0.12639047837033646
-0.007049668116273747,-0.15928892957961394
-0.004699778744182497,-0.19453727016098266
-0.004364080262455177,-0.2140077821011673
-0.0003356984817273213,-0.2150148775463493
0.010406652933546959,-0.1992370489051652
0.01376363775082017,-0.17607385366598
0.013092240787365528,-0.1492179751277943
0.011749446860456245,-0.1240405889982452
0.009735255970092317,-0.10389868009460593
0.011078049897001601,-0.0891279468986038
0.013092240787365528,-0.08207827878233005
0.012756542305638208,-0.08409246967269397
0.007721065079728388,-0.09903105210955977
0.006042572671091783,-0.11866941329060808
0.003692683299000534,-0.12639047837033646
0.0016784924086366065,-0.11430533302815289
-0.0030212863355458916,-0.08744945448996719
-0.005706874189364461,-0.05656519417105363
-0.005706874189364461,-0.019974059662775615
-0.006378271152819104,0.024338139925230793
-0.008392462043183033,0.07167162584878309
-0.008392462043183033,0.11245899137865262
-0.005706874189364461,0.13142595559624626
-0.005706874189364461,0.1270618753337911
-0.005706874189364461,0.10725566491187914
0.0016784924086366065,0.08761730373083085
0.006042572671091783,0.0800640878919661
0.004364080262455177,0.08812085145342184
0.006378271152819104,0.09953459983215075
0.0050354772259098195,0.10389868009460593
0.007049668116273747,0.10054169527733271
0.011413748378728923,0.09349202716105898
0.014435034714274816,0.08274967574578469
0.007721065079728388,0.06428625925078202
0.007721065079728388,0.03743038071259632
0.007049668116273747,-0.0025177386129549098
0.003692683299000534,-0.044815747310597384
0.0010070954451819635,-0.08375677119096665
0.0030212863355458916,-0.11732661936369877
-0.0010070954451819635,-0.14988937209124895
-0.004364080262455177,-0.18413061722743573
-0.0016784924086366065,-0.20830090791180284
-0.005706874189364461,-0.21904325932707713
-0.008392462043183033,-0.21434348058289462
-0.0030212863355458916,-0.1952086671244373
0.0050354772259098195,-0.166674296177615
0.009735255970092317,-0.1351186388952468
0.011749446860456245,-0.11161974517433432
0.013092240787365528,-0.09584191653315023
0.017120622568093383,-0.08896009765774013
0.0157778286411841,-0.08812085145342184
0.012756542305638208,-0.09517051956969558
0.011749446860456245,-0.11346608682383458
0.010406652933546959,-0.12605477988860914
0.012756542305638208,-0.12169069962615398
0.006378271152819104,-0.0988632028686961
0.003692683299000534,-0.06428625925078202
0.0010070954451819635,-0.026352330815594724
-0.0016784924086366065,0.011413748378728923
-0.004364080262455177,0.052201113908598454
-0.004364080262455177,0.08577096208133059
-0.004364080262455177,0.1032272831311513
-0.009063859006637675,0.10255588616769665
-0.003692683299000534,0.09449912260624094
0.0010070954451819635,0.08375677119096665
0.0030212863355458916,0.07284657053482871
0.006378271152819104,0.07217517357137408
0.0050354772259098195,0.08140688181887541
0.004364080262455177,0.09164568551155872
0.0050354772259098195,0.09483482108796826
0.0023498893720912484,0.09382772564278628
0.007049668116273747,0.0891279468986038
0.007049668116273747,0.07570000762951096
0.010406652933546959,0.05304036011291676
0.009735255970092317,0.017959868772411687
0.008392462043183033,-0.024338139925230793
0.0050354772259098195,-0.06462195773250935
0.0010070954451819635,-0.0946669718471046
0.0010070954451819635,-0.12034790569924468
-0.003692683299000534,-0.1552605477988861
-0.009063859006637675,-0.19218738078889144
-0.009399557488364994,-0.2150148775463493
-0.009735255970092317,-0.2183718623636225
-0.009063859006637675,-0.2056153200579843
-0.005706874189364461,-0.1802700846875715
-0.005706874189364461,-0.1475394827191577
-0.0016784924086366065,-0.11883726253147174
0.004364080262455177,-0.0988632028686961
0.009063859006637675,-0.08879224841687647
0.013092240787365528,-0.08308537422751203
0.013092240787365528,-0.08073548485542076
0.0157778286411841,-0.0955062180514229
0.014435034714274816,-0.12504768444342718
0.011749446860456245,-0.14183260852979326
0.015106431677729458,-0.1270618753337911
0.014435034714274816,-0.08744945448996719
0.008392462043183033,-0.043472953383688104
0.006378271152819104,-0.005874723430228122
0.0023498893720912484,0.033401998931868467
-0.002014190890363927,0.07049668116273747
-0.0010070954451819635,0.09819180590524147
-0.0016784924086366065,0.1096055542839704
-0.0030212863355458916,0.10775921263447012
-0.0003356984817273213,0.0988632028686961
-0.0016784924086366065,0.08577096208133059
-0.003692683299000534,0.07570000762951096
-0.003692683299000534,0.07637140459296558
-0.0010070954451819635,0.08409246967269397
0.0023498893720912484,0.08845654993514916
0.005706874189364461,0.0891279468986038
0.011749446860456245,0.08879224841687647
0.011078049897001601,0.08241397726405737
0.007721065079728388,0.06747539482719157
0.007721065079728388,0.04011596856641489
0.010406652933546959,0.0005035477225909818
0.013092240787365528,-0.04548714427405204
0.013092240787365528,-0.08073548485542076
0.009735255970092317,-0.10557717250324253
0.006378271152819104,-0.1347829404135195
0.004364080262455177,-0.17355611505302507
-0.0003356984817273213,-0.2064545662623026
0.0016784924086366065,-0.21467917906462194
-0.0016784924086366065,-0.2029297322041657
-0.004364080262455177,-0.18312352178225372
-0.008392462043183033,-0.16482795452811475
-0.015442130159456776,-0.14518959334706644
-0.017120622568093383,-0.12370489051651787
-0.008392462043183033,-0.10087739375906005
-0.0030212863355458916,-0.08375677119096665
0.003356984817273213,-0.07637140459296558
0.009735255970092317,-0.08207827878233005
0.009063859006637675,-0.10557717250324253
0.014435034714274816,-0.12907606622415504
0.013092240787365528,-0.13243305104142825
0.013092240787365528,-0.10893415732051576
0.013092240787365528,-0.06865033951323721
0.01376363775082017,-0.027695124742504008
0.014435034714274816,0.010910200656137941
0.007721065079728388,0.049515526054779886
0.0050354772259098195,0.08812085145342184
0.0003356984817273213,0.11195544365606165
-0.005706874189364461,0.11934081025406272
-0.007049668116273747,0.11396963454642556
-0.006378271152819104,0.10121309224078735
-0.005706874189364461,0.08778515297169451
-0.005706874189364461,0.07872129396505684
-0.003692683299000534,0.08342107270923933
-0.005706874189364461,0.09449912260624094
-0.006378271152819104,0.10238803692683297
-0.0003356984817273213,0.10557717250324253
0.006378271152819104,0.09752040894178682
0.008728160524910353,0.07905699244678416
0.007721065079728388,0.05522240024414436
0.006378271152819104,0.026352330815594724
0.011749446860456245,-0.012252994583047227
0.013092240787365528,-0.05555809872587166
0.012420843823910887,-0.09701686121919585
0.013092240787365528,-0.13444724193179217
0.011749446860456245,-0.17271686884870677
0.009735255970092317,-0.20225833524071107
0.007721065079728388,-0.21635767147325857
0.005706874189364461,-0.21199359121080338
0.0010070954451819635,-0.1935301747158007
-0.0003356984817273213,-0.17170977340352483
-0.0010070954451819635,-0.14988937209124895
-0.004028381780727854,-0.12941176470588234
-0.007721065079728388,-0.10691996643015184
-0.009063859006637675,-0.08744945448996719
-0.008392462043183033,-0.07553215838864728
-0.0050354772259098195,-0.07200732433051041
0.0003356984817273213,-0.09047074082551307
0.005706874189364461,-0.11799801632715344
0.010406652933546959,-0.13444724193179217
0.011749446860456245,-0.12471198596169988
0.011749446860456245,-0.09449912260624094
0.009063859006637675,-0.05589379720759898
0.009063859006637675,-0.01560997940032044
0.009063859006637675,0.025345235370412753
0.010406652933546959,0.06428625925078202
0.0157778286411841,0.09382772564278628
0.012420843823910887,0.10725566491187914
0.010406652933546959,0.10725566491187914
0.004364080262455177,0.09835965514610515
0.0010070954451819635,0.08476386663614863
0.0003356984817273213,0.07570000762951096
-0.006378271152819104,0.08107118333714809
-0.014435034714274816,0.09449912260624094
-0.011078049897001601,0.1002059967956054
-0.007049668116273747,0.09047074082551307
-0.006378271152819104,0.08039978637369342
-0.004699778744182497,0.074189364461738
-0.0003356984817273213,0.06663614862287326
0.0016784924086366065,0.04548714427405204
0.0050354772259098195,0.008560311284046692
0.006042572671091783,-0.03675898374914168
0.007721065079728388,-0.08157473105973906
0.009063859006637675,-0.11766231784542608
0.014435034714274816,-0.15324635690852215
0.015106431677729458,-0.18815899900816355
0.01376363775082017,-0.2106507972838941
0.0157778286411841,-0.21232928969253068
0.013092240787365528,-0.19755855649652856
0.007721065079728388,-0.1816128786144808
0.006378271152819104,-0.166674296177615
0.003692683299000534,-0.15056076905470359
-0.0023498893720912484,-0.1304188601510643
-0.006378271152819104,-0.1062485694666972
-0.003692683299000534,-0.0861066605630579
-0.008392462043183033,-0.07704280155642022
-0.013092240787365528,-0.08677805752651253
-0.011078049897001601,-0.11380178530556191
-0.008392462043183033,-0.13881132219424736
0.0016784924086366065,-0.13881132219424736
0.005706874189364461,-0.10725566491187914
0.009063859006637675,-0.0639505607690547
0.009735255970092317,-0.028702220187685965
0.010070954451819639,0.004531929503318838
0.009735255970092317,0.04615854123750667
0.011749446860456245,0.08627450980392155
0.013092240787365528,0.10994125276569772
0.01376363775082017,0.10926985580224306
0.012420843823910887,0.09483482108796826
0.010406652933546959,0.07771419851987486
0.006378271152819104,0.07100022888532845
0.0003356984817273213,0.0800640878919661
-0.0003356984817273213,0.0955062180514229
-0.0016784924086366065,0.10389868009460593
-0.003692683299000534,0.09987029831387809
-0.006042572671091783,0.09181353475242236
-0.005706874189364461,0.08308537422751203
-0.007721065079728388,0.0750286106660563
-0.005706874189364461,0.0639505607690547
-0.007049668116273747,0.03860532539864195
0.0006713969634546426,-0.005706874189364461
0.006378271152819104,-0.057236591134508276
0.008392462043183033,-0.09752040894178682
0.009063859006637675,-0.1270618753337911
0.009063859006637675,-0.15895323109788664
0.011413748378728923,-0.19386587319752804
0.012420843823910887,-0.21568627450980396
0.011749446860456245,-0.21635767147325857
0.011413748378728923,-0.20225833524071107
0.013092240787365528,-0.18144502937361714
0.010070954451819639,-0.15895323109788664
0.004699778744182497,-0.13746852826733807
0.004364080262455177,-0.11699092088197145
0.0050354772259098195,-0.09752040894178682
0.003692683299000534,-0.08274967574578469
0.0016784924086366065,-0.07620355535210192
-0.0016784924086366065,-0.08879224841687647
-0.004364080262455177,-0.11363393606469825
-0.012756542305638208,-0.13243305104142825
-0.011749446860456245,-0.1317616540779736
-0.007049668116273747,-0.10893415732051576
-0.0003356984817273213,-0.07335011825741969
0.007049668116273747,-0.029205767910276948
0.007049668116273747,0.019302662699320974
0.009063859006637675,0.06680399786373693
0.007721065079728388,0.10154879072251469
0.010406652933546959,0.11061264972915236
0.0050354772259098195,0.10356298161287861
0.004364080262455177,0.09181353475242236
0.008728160524910353,0.08342107270923933
0.012420843823910887,0.08174258030060273
0.010070954451819639,0.09013504234378575
0.004364080262455177,0.09970244907301441
0.0010070954451819635,0.09752040894178682
-0.005706874189364461,0.09181353475242236
-0.005706874189364461,0.08677805752651253
-0.008728160524910353,0.07905699244678416
-0.008392462043183033,0.06663614862287326
-0.007721065079728388,0.04414435034714275
-0.008392462043183033,0.010070954451819639
-0.008392462043183033,-0.03508049134050507
-0.008392462043183033,-0.08073548485542076
-0.004699778744182497,-0.11866941329060808
-0.0016784924086366065,-0.14854657816433967
0.005706874189364461,-0.175066758220798
0.009063859006637675,-0.19755855649652856
0.008392462043183033,-0.2076295109483482
0.011078049897001601,-0.2015869382772564
0.0157778286411841,-0.18211642633707179
0.0157778286411841,-0.1576104371709773
0.0157778286411841,-0.13679713130388343
0.01846341649500267,-0.12437628747997252
0.017120622568093383,-0.11229114213778896
0.009063859006637675,-0.0988632028686961
0.0050354772259098195,-0.08358892195010299
0.004364080262455177,-0.07872129396505684
-0.0023498893720912484,-0.09483482108796826
-0.004364080262455177,-0.11833371480888075
-0.004364080262455177,-0.12974746318760969
-0.0030212863355458916,-0.11497672999160755
-0.004364080262455177,-0.08375677119096665
-0.0016784924086366065,-0.042465857938506144
-0.0003356984817273213,0.004196231021591517
0.0010070954451819635,0.051865415426871134
0.0023498893720912484,0.09147783627069504
0.004364080262455177,0.11229114213778896
0.007385366598001068,0.11396963454642556
0.007049668116273747,0.10356298161287861
0.006042572671091783,0.08979934386205844
0.006378271152819104,0.0788891432059205
0.0050354772259098195,0.07905699244678416
0.009063859006637675,0.09047074082551307
0.014435034714274816,0.09852750438696878
0.013092240787365528,0.09584191653315023
0.007721065079728388,0.08845654993514916
-0.0003356984817273213,0.08409246967269397
-0.0030212863355458916,0.08073548485542076
-0.005706874189364461,0.06630045014114595
-0.006042572671091783,0.03743038071259632
-0.005706874189364461,-0.0035248340581368735
-0.009063859006637675,-0.04750133516441596
-0.009735255970092317,-0.08560311284046693
-0.005706874189364461,-0.12101930266269931
-0.003692683299000534,-0.16298161287861446
-0.0003356984817273213,-0.20360112916762035
0.0023498893720912484,-0.22542153047989621
0.006378271152819104,-0.22005035477225907
0.009735255970092317,-0.1982299534599832
0.012085145342183566,-0.17607385366598
0.006378271152819104,-0.15593194476234074
0.009063859006637675,-0.13780422674906534
0.012420843823910887,-0.11833371480888075
0.015442130159456776,-0.10154879072251469
0.014435034714274816,-0.08644235904478523
0.008728160524910353,-0.07536430914778362
0.0050354772259098195,-0.08073548485542076
0.006378271152819104,-0.10305943389028763
0.0050354772259098195,-0.12672617685206378
0.003356984817273213,-0.12773327229724574
-0.0003356984817273213,-0.10389868009460593
-0.0050354772259098195,-0.06764324406805522
-0.004364080262455177,-0.027023727779049357
-0.008392462043183033,0.01896696421759365
-0.008392462043183033,0.06630045014114595
-0.0023498893720912484,0.09953459983215075
-0.004364080262455177,0.11094834821087966
-0.0010070954451819635,0.10524147402151522
0.0050354772259098195,0.092484931715877
0.011749446860456245,0.0800640878919661
0.014435034714274816,0.07284657053482871
0.013092240787365528,0.07704280155642022
0.009735255970092317,0.08845654993514916
0.012420843823910887,0.09584191653315023
0.011749446860456245,0.09852750438696878
0.007721065079728388,0.09315632867933166
0.007721065079728388,0.0767071030746929
0.010406652933546959,0.05622949568932631
0.006378271152819104,0.035751888303959714
0.003692683299000534,0.011581597619592583
0.0050354772259098195,-0.022491798275730522
-0.0023498893720912484,-0.06160067139696345
-0.007721065079728388,-0.09987029831387809
-0.005706874189364461,-0.14183260852979326
-0.0050354772259098195,-0.18480201419089035
-0.004364080262455177,-0.21635767147325857
-0.005706874189364461,-0.22172884718089572
0.0003356984817273213,-0.2056153200579843
0.0016784924086366065,-0.18345922026398107
0.0010070954451819635,-0.16214236667429618
0.005706874189364461,-0.1414969100480659
0.009063859006637675,-0.11833371480888075
0.008728160524910353,-0.09987029831387809
0.011749446860456245,-0.08509956511787593
0.014435034714274816,-0.07351796749828336
0.0157778286411841,-0.07167162584878309
0.013092240787365528,-0.08778515297169451
0.011749446860456245,-0.11631952391851681
0.009063859006637675,-0.13377584496833753
0.0023498893720912484,-0.12169069962615398
-0.0016784924086366065,-0.08543526359960325
-0.004364080262455177,-0.040451667048142216
-0.0023498893720912484,0.004531929503318838
-0.003692683299000534,0.04750133516441596
-0.007721065079728388,0.08577096208133059
-0.011749446860456245,0.10926985580224306
-0.010070954451819639,0.11715877012283514
-0.005706874189364461,0.10843060959792476
-0.0010070954451819635,0.08644235904478523
0.0023498893720912484,0.06965743495841917
0.006378271152819104,0.06596475165941862
0.010406652933546959,0.08107118333714809
0.010070954451819639,0.09987029831387809
0.012756542305638208,0.1079270618753338
0.015106431677729458,0.10708781567101548
0.011749446860456245,0.0971847104600595
0.009063859006637675,0.08107118333714809
0.014099336232547494,0.057236591134508276
0.012420843823910887,0.028702220187685965
0.007721065079728388,-0.00788891432059205
0.0006713969634546426,-0.04917982757305257
-0.0030212863355458916,-0.08627450980392155
-0.007049668116273747,-0.12437628747997252
-0.007049668116273747,-0.16432440680552376
-0.006378271152819104,-0.2029297322041657
-0.008392462043183033,-0.22340733958953235
-0.012756542305638208,-0.21971465629053175
-0.009735255970092317,-0.2012512397955291
-0.006378271152819104,-0.17943083848325322
-0.0016784924086366065,-0.16130312046997786
0.003692683299000534,-0.14283970397497517
0.010070954451819639,-0.12202639810788128
0.010406652933546959,-0.10154879072251469
0.010406652933546959,-0.08207827878233005
0.008728160524910353,-0.07402151522087433
0.010406652933546959,-0.08476386663614863
0.01376363775082017,-0.10910200656137943
0.01376363775082017,-0.1270618753337911
0.012420843823910887,-0.12303349355306323
0.010406652933546959,-0.09919890135042343
0.0023498893720912484,-0.06865033951323721
0.0006713969634546426,-0.03172350652323186
0.003356984817273213,0.01594567788204776
0.0010070954451819635,0.06965743495841917
-0.003692683299000534,0.11128404669260701
-0.0030212863355458916,0.12739757381551842
-0.006378271152819104,0.12504768444342718
-0.008392462043183033,0.10926985580224306
-0.003692683299000534,0.08979934386205844
0.0023498893720912484,0.07402151522087433
0.005706874189364461,0.07737850003814756
0.010070954451819639,0.09651331349660487
0.011413748378728923,0.10859845883878842
0.012420843823910887,0.1057450217441062
0.012756542305638208,0.09114213778896772
0.010406652933546959,0.07872129396505684
0.007049668116273747,0.06663614862287326
0.005706874189364461,0.050186923018234526
0.009735255970092317,0.02333104448004883
0.01376363775082017,-0.017288471808957043
0.011749446860456245,-0.06092927443350881
0.010406652933546959,-0.10054169527733271
0.006378271152819104,-0.14048981460288396
-0.0010070954451819635,-0.18245212481879908
-0.006378271152819104,-0.21300068665598534
-0.004364080262455177,-0.2203860532539864
-0.006378271152819104,-0.21232928969253068
-0.005706874189364461,-0.19554436560616464
-0.008392462043183033,-0.17473105973907072
-0.009063859006637675,-0.15324635690852215
-0.006378271152819104,-0.13310444800488286
-0.0003356984817273213,-0.11631952391851681
0.0010070954451819635,-0.10356298161287861
-0.0003356984817273213,-0.09449912260624094
0.0023498893720912484,-0.09416342412451362
0.004364080262455177,-0.10691996643015184
0.009063859006637675,-0.12370489051651787
0.010406652933546959,-0.12907606622415504
0.013092240787365528,-0.11329823758297093
0.015106431677729458,-0.08342107270923933
0.0157778286411841,-0.04313725490196078
0.009735255970092317,-0.0011749446860456242
0.004699778744182497,0.04615854123750667
0.0023498893720912484,0.09114213778896772
-0.002014190890363927,0.11766231784542608
-0.0030212863355458916,0.12101930266269931
-0.005706874189364461,0.10423437857633323
-0.008392462043183033,0.08241397726405737
-0.008392462043183033,0.06596475165941862
-0.008392462043183033,0.06495765621423667
-0.007721065079728388,0.08023193713282978
-0.003692683299000534,0.09752040894178682
-0.0006713969634546426,0.10440222781719691
0.0023498893720912484,0.10054169527733271
0.0050354772259098195,0.09114213778896772
0.009063859006637675,0.07737850003814756
0.009063859006637675,0.06126497291523613
0.009735255970092317,0.03994811932555123
0.007721065079728388,0.006210421911955443
0.011413748378728923,-0.037094682230869
0.014435034714274816,-0.08073548485542076
0.015106431677729458,-0.11732661936369877
0.015106431677729458,-0.15408560311284045
0.009735255970092317,-0.19386587319752804
0.0023498893720912484,-0.22542153047989621
0.0006713969634546426,-0.2291142137788968
-0.0023498893720912484,-0.21165789272907606
-0.0016784924086366065,-0.18345922026398107
-0.0030212863355458916,-0.15324635690852215
-0.005706874189364461,-0.12639047837033646
-0.008392462043183033,-0.10524147402151522
-0.007721065079728388,-0.09416342412451362
-0.0030212863355458916,-0.08812085145342184
-0.0003356984817273213,-0.08627450980392155
0.004699778744182497,-0.09282063019760432
0.005706874189364461,-0.11061264972915236
0.005706874189364461,-0.12974746318760969
0.008392462043183033,-0.12974746318760969
0.009063859006637675,-0.10826276035706112
0.010406652933546959,-0.07368581673914701
0.007721065079728388,-0.035751888303959714
0.005706874189364461,0.010406652933546959
0.007721065079728388,0.06411841000991834
0.007049668116273747,0.1065842679484245
0.0023498893720912484,0.1253833829251545
0.003692683299000534,0.11799801632715344
-0.0030212863355458916,0.09785610742351414
-0.0030212863355458916,0.07637140459296558
-0.0010070954451819635,0.06797894254978255
-0.0006713969634546426,0.0797283894102388
-0.0030212863355458916,0.09919890135042343
-0.0030212863355458916,0.11061264972915236
-0.0016784924086366065,0.11061264972915236
-0.0006713969634546426,0.1032272831311513
0.0030212863355458916,0.09315632867933166
0.006378271152819104,0.07637140459296558
0.009063859006637675,0.04682993820096131
0.013092240787365528,0.011917296101319903
0.014435034714274816,-0.030045014114595252
0.014435034714274816,-0.06898603799496453
0.012420843823910887,-0.10104524299992369
0.011413748378728923,-0.13444724193179217
0.011749446860456245,-0.17405966277561608
0.009735255970092317,-0.21199359121080338
0.008728160524910353,-0.23012130922407872
0.009063859006637675,-0.223071641107805
0.0010070954451819635,-0.19755855649652856
-0.007049668116273747,-0.16466010528725106
-0.003356984817273213,-0.13746852826733807
-0.0050354772259098195,-0.11967650873579004
-0.0016784924086366065,-0.10910200656137943
0.0010070954451819635,-0.0971847104600595
-0.003356984817273213,-0.08627450980392155
-0.009063859006637675,-0.08409246967269397
-0.006042572671091783,-0.09852750438696878
-0.003692683299000534,-0.11900511177233539
-0.0006713969634546426,-0.1270618753337911
0.006378271152819104,-0.11732661936369877
0.013092240787365528,-0.09517051956969558
0.012085145342183566,-0.06327916380560006
0.012420843823910887,-0.019302662699320974
0.010070954451819639,0.03659113450827802
0.008728160524910353,0.08812085145342184
0.011749446860456245,0.12001220721751735
0.011749446860456245,0.12672617685206378
0.012420843823910887,0.11464103150988021
0.007721065079728388,0.09483482108796826
0.0016784924086366065,0.07637140459296558
-0.0016784924086366065,0.06462195773250935
-0.004364080262455177,0.07100022888532845
-0.006378271152819104,0.08778515297169451
-0.009735255970092317,0.10356298161287861
-0.011078049897001601,0.10994125276569772
-0.011078049897001601,0.1032272831311513
-0.009063859006637675,0.08845654993514916
-0.0030212863355458916,0.06294346532387274
0.0010070954451819635,0.030716411078049892
0.003692683299000534,-0.009567406729228655
0.007049668116273747,-0.050186923018234526
0.0050354772259098195,-0.08207827878233005
0.0050354772259098195,-0.11161974517433432
0.006378271152819104,-0.14988937209124895
0.012085145342183566,-0.19621576256961928
0.010406652933546959,-0.22743572137026014
0.012085145342183566,-0.23045700770580602
0.014435034714274816,-0.2089723048752575
0.0157778286411841,-0.17943083848325322
0.014099336232547494,-0.15324635690852215
0.005706874189364461,-0.1287403677424277
0.0010070954451819635,-0.10893415732051576
-0.0003356984817273213,-0.09617761501487754
-0.0016784924086366065,-0.08879224841687647
-0.004364080262455177,-0.0797283894102388
-0.004364080262455177,-0.08090333409628443
-0.005706874189364461,-0.10222018768596933
-0.006378271152819104,-0.12773327229724574
-0.0023498893720912484,-0.13243305104142825
0.003692683299000534,-0.10725566491187914
0.007721065079728388,-0.06730754558632791
0.010070954451819639,-0.03105210955977722
0.012420843823910887,0.0025177386129549098
0.0157778286411841,0.044815747310597384
0.011078049897001601,0.0861066605630579
0.006378271152819104,0.11531242847333485
0.0050354772259098195,0.12269779507133592
0.0050354772259098195,0.11229114213778896
0.007049668116273747,0.0955062180514229
0.006378271152819104,0.07872129396505684
0.0050354772259098195,0.07435721370260165
0.0023498893720912484,0.0844281681544213
0.0010070954451819635,0.09852750438696878
0.0010070954451819635,0.10725566491187914
-0.0016784924086366065,0.10457007705806058
-0.004699778744182497,0.09416342412451362
-0.004699778744182497,0.07234302281223774
-0.005706874189364461,0.044815747310597384
-0.004364080262455177,0.011581597619592583
-0.0006713969634546426,-0.028366521705958644
0.006378271152819104,-0.06596475165941862
0.009735255970092317,-0.09684901197833219
0.007385366598001068,-0.1284046692607004
0.003692683299000534,-0.1693598840314336
0.004364080262455177,-0.2076295109483482
0.006713969634546426,-0.22525368123903253
0.007721065079728388,-0.21820401312275886
0.010406652933546959,-0.19285877775234606
0.014435034714274816,-0.16398870832379644
0.01846341649500267,-0.1398184176394293
0.01846341649500267,-0.11967650873579004
0.010406652933546959,-0.10356298161287861
0.0010070954451819635,-0.08946364538033112
-0.0010070954451819635,-0.07939269092851148
-0.0030212863355458916,-0.08241397726405737
-0.007049668116273747,-0.10591287098496985
-0.006378271152819104,-0.13411154345006485
-0.006042572671091783,-0.14250400549324788
-0.008392462043183033,-0.12169069962615398
-0.004364080262455177,-0.0891279468986038
0.0006713969634546426,-0.056061646448462656
0.0006713969634546426,-0.025680933852140077
0.007721065079728388,0.017288471808957043
0.008392462043183033,0.06562905317769131
0.0050354772259098195,0.1065842679484245
0.0030212863355458916,0.12806897077897306
0.0030212863355458916,0.12202639810788128
0.009063859006637675,0.10054169527733271
0.012420843823910887,0.07637140459296558
0.009063859006637675,0.06831464103150987
0.013092240787365528,0.08039978637369342
0.007721065079728388,0.0988632028686961
0.004364080262455177,0.10859845883878842
0.0016784924086366065,0.1065842679484245
-0.0003356984817273213,0.0988632028686961
-0.004699778744182497,0.08308537422751203
-0.008392462043183033,0.060593575951781484
-0.004699778744182497,0.032730601968413826
-0.005706874189364461,-0.0021820401312275884
-0.005706874189364461,-0.03978027008468757
-0.003692683299000534,-0.07536430914778362
-0.0030212863355458916,-0.1096055542839704
-0.0016784924086366065,-0.1492179751277943
0.004364080262455177,-0.18883039597161821
0.011078049897001601,-0.21635767147325857
0.013092240787365528,-0.22458228427557791
0.009735255970092317,-0.21904325932707713
0.011078049897001601,-0.19890135042343787
0.008392462043183033,-0.16902418554970625
0.006378271152819104,-0.13780422674906534
0.007385366598001068,-0.11296253910124363
0.0050354772259098195,-0.09668116273746853
0.006378271152819104,-0.08509956511787593
0.007721065079728388,-0.08073548485542076
0.0050354772259098195,-0.08778515297169451
0.0006713969634546426,-0.11178759441519796
0.0016784924086366065,-0.13394369420920116
-0.0010070954451819635,-0.1317616540779736
-0.004699778744182497,-0.10557717250324253
-0.006378271152819104,-0.06865033951323721
-0.007049668116273747,-0.0323949034866865
-0.005706874189364461,0.007217517357137408
-0.006378271152819104,0.051865415426871134
-0.0030212863355458916,0.092484931715877
0.0010070954451819635,0.11783016708628975
0.006042572671091783,0.12101930266269931
0.009063859006637675,0.11027695124742502
0.009735255970092317,0.0891279468986038
0.009063859006637675,0.06881818875410085
0.011413748378728923,0.06630045014114595
0.010406652933546959,0.08577096208133059
0.009735255970092317,0.10859845883878842
0.010406652933546959,0.11598382543678949
0.010406652933546959,0.10859845883878842
0.006378271152819104,0.09567406729228656
0.0010070954451819635,0.08073548485542076
0.0016784924086366065,0.05958648050659952
0.0010070954451819635,0.025345235370412753
-0.0023498893720912484,-0.02366674296177615
-0.0030212863355458916,-0.06797894254978255
-0.007049668116273747,-0.10188448920424201
-0.009063859006637675,-0.12991531242847335
-0.004364080262455177,-0.16617074845502405
-0.008392462043183033,-0.2056153200579843
-0.005706874189364461,-0.22609292744335088
-0.0003356984817273213,-0.22676432440680552
0.006378271152819104,-0.2124971389333944
0.013092240787365528,-0.1901731898985275
0.011078049897001601,-0.16130312046997786
0.014099336232547494,-0.13109025711451894
0.013092240787365528,-0.10775921263447012
0.013092240787365528,-0.09315632867933166
0.015106431677729458,-0.08896009765774013
0.016449225604638743,-0.08812085145342184
0.013092240787365528,-0.10154879072251469
0.01376363775082017,-0.1253833829251545
0.011413748378728923,-0.13847562371252
0.006378271152819104,-0.1257190814068818
0.0023498893720912484,-0.09365987640192262
0.004364080262455177,-0.057572289616235596
0.0016784924086366065,-0.01896696421759365
-0.0030212863355458916,0.024673838406958113
-0.004364080262455177,0.07167162584878309
-0.007049668116273747,0.11128404669260701
-0.004364080262455177,0.1284046692607004
0.0006713969634546426,0.11984435797665367
0.0030212863355458916,0.09919890135042343
0.003692683299000534,0.08039978637369342
0.007385366598001068,0.07301441977569237
0.009063859006637675,0.08039978637369342
0.007721065079728388,0.09214923323414968
0.009399557488364994,0.0988632028686961
0.010406652933546959,0.09919890135042343
0.007721065079728388,0.10289158464942397
0.0050354772259098195,0.09919890135042343
0.0050354772259098195,0.08073548485542076
0.0023498893720912484,0.050522621499961846
0.0023498893720912484,0.006881818875410085
-0.0003356984817273213,-0.042465857938506144
-0.003356984817273213,-0.08409246967269397
-0.004364080262455177,-0.11430533302815289
-0.007049668116273747,-0.14518959334706644
-0.007721065079728388,-0.18278782330052643
-0.007385366598001068,-0.21367208361943996
-0.007049668116273747,-0.22592507820248725
-0.0030212863355458916,-0.21568627450980396
-0.0010070954451819635,-0.19218738078889144
0.0030212863355458916,-0.16466010528725106
0.009063859006637675,-0.14082551308461125
0.009063859006637675,-0.12034790569924468
0.010406652933546959,-0.10154879072251469
0.009063859006637675,-0.08963149462119477
0.009063859006637675,-0.08409246967269397
0.011749446860456245,-0.09282063019760432
0.009063859006637675,-0.11564812695506219
0.008392462043183033,-0.13209735255970093
0.008392462043183033,-0.12857251850156404
0.007049668116273747,-0.1062485694666972
0.0023498893720912484,-0.07066453040360113
-0.004364080262455177,-0.029037918669413288
-0.009735255970092317,0.013931486991683832
-0.005706874189364461,0.05354390783550774
-0.004364080262455177,0.08543526359960325
-0.007721065079728388,0.1096055542839704
-0.009735255970092317,0.11866941329060808
-0.005706874189364461,0.11430533302815289
-0.0016784924086366065,0.10054169527733271
-0.0003356984817273213,0.08476386663614863
0.0050354772259098195,0.0797283894102388
0.010070954451819639,0.08778515297169451
0.006378271152819104,0.09953459983215075
0.0050354772259098195,0.10356298161287861
0.007721065079728388,0.10457007705806058
0.008392462043183033,0.10087739375906005
0.010406652933546959,0.08711375600823987
0.011413748378728923,0.06428625925078202
0.014435034714274816,0.02937361715114061
0.011413748378728923,-0.01560997940032044
0.003692683299000534,-0.060593575951781484
0.0023498893720912484,-0.09416342412451362
0.0010070954451819635,-0.12202639810788128
-0.004364080262455177,-0.15811398489356832
-0.0030212863355458916,-0.19722285801480124
-0.0010070954451819635,-0.22172884718089572
-0.0030212863355458916,-0.22441443503471423
-0.0010070954451819635,-0.20830090791180284
-0.0003356984817273213,-0.18144502937361714
0.002014190890363927,-0.1512321660181582
0.0023498893720912484,-0.12605477988860914
0.007721065079728388,-0.10893415732051576
0.014099336232547494,-0.0955062180514229
0.01846341649500267,-0.08073548485542076
0.017120622568093383,-0.07167162584878309
0.0157778286411841,-0.08812085145342184
0.012420843823910887,-0.12101930266269931
0.013092240787365528,-0.139482719157702
0.013092240787365528,-0.12941176470588234
0.011749446860456245,-0.0955062180514229
0.009063859006637675,-0.053208209353780414
0.0050354772259098195,-0.012588693064774548
0.0010070954451819635,0.03138780804150454
-0.0030212863355458916,0.0703288319218738
-0.0016784924086366065,0.0971847104600595
-0.0030212863355458916,0.10725566491187914
-0.007049668116273747,0.10691996643015184
-0.005706874189364461,0.1002059967956054
-0.005706874189364461,0.08963149462119477
-0.0050354772259098195,0.08090333409628443
-0.004699778744182497,0.08039978637369342
-0.0003356984817273213,0.08979934386205844
0.007721065079728388,0.09819180590524147
0.009735255970092317,0.10356298161287861
0.011078049897001601,0.10356298161287861
0.009063859006637675,0.09483482108796826
0.0050354772259098195,0.07637140459296558
0.0016784924086366065,0.04682993820096131
-0.0006713969634546426,0.0050354772259098195
0.0050354772259098195,-0.042465857938506144
0.006378271152819104,-0.08073548485542076
0.0023498893720912484,-0.10826276035706112
0.003692683299000534,-0.1411612115663386
0.0023498893720912484,-0.18413061722743573
-0.0003356984817273213,-0.21853971160448613
-0.0006713969634546426,-0.22777141985198748
0.0003356984817273213,-0.2150148775463493
-0.0023498893720912484,-0.19554436560616464
-0.003692683299000534,-0.17943083848325322
-0.003692683299000534,-0.1586175326161593
-0.0023498893720912484,-0.13310444800488286
-0.003692683299000534,-0.1057450217441062
0.0023498893720912484,-0.0861066605630579
0.008392462043183033,-0.07603570611123828
0.010406652933546959,-0.08140688181887541
0.007721065079728388,-0.10893415732051576
0.008392462043183033,-0.13579003585870145
0.009063859006637675,-0.14317540245670252
0.003356984817273213,-0.11900511177233539
0.004699778744182497,-0.07536430914778362
0.010406652933546959,-0.033234149691004806
0.007721065079728388,0.003860532539864194
0.007721065079728388,0.04515144579232471
0.005706874189364461,0.0882887006942855
0.004364080262455177,0.11531242847333485
0.0030212863355458916,0.12068360418097199
0.0023498893720912484,0.11363393606469825
-0.0030212863355458916,0.10104524299992369
-0.007721065079728388,0.08543526359960325
-0.011078049897001601,0.07469291218432898
-0.010406652933546959,0.07771419851987486
-0.006378271152819104,0.08812085145342184
0.0003356984817273213,0.0971847104600595
0.007385366598001068,0.1065842679484245
0.007385366598001068,0.1079270618753338
0.006378271152819104,0.092484931715877
0.009063859006637675,0.06428625925078202
0.013092240787365528,0.03138780804150454
0.012420843823910887,-0.009567406729228655
0.013092240787365528,-0.05824368657969024
0.013092240787365528,-0.10708781567101548
0.014435034714274816,-0.14418249790188448
0.011078049897001601,-0.17708094911116198
0.009063859006637675,-0.20494392309452963
0.003692683299000534,-0.22172884718089572
-0.0003356984817273213,-0.22340733958953235
-0.0030212863355458916,-0.21165789272907606
-0.0030212863355458916,-0.19084458686198216
-0.004699778744182497,-0.16533150225070573
-0.007049668116273747,-0.14082551308461125
-0.006378271152819104,-0.11833371480888075
-0.005706874189364461,-0.09835965514610515
-0.004364080262455177,-0.08476386663614863
-0.0003356984817273213,-0.08241397726405737
0.0030212863355458916,-0.10087739375906005
0.006042572671091783,-0.1270618753337911
0.011749446860456245,-0.1411612115663386
0.013092240787365528,-0.1270618753337911
0.010406652933546959,-0.09282063019760432
0.010406652933546959,-0.051529716945143814
0.007385366598001068,-0.011581597619592583
0.0030212863355458916,0.028030823224231328
0.006378271152819104,0.0694895857175555
0.014435034714274816,0.10255588616769665
0.009735255970092317,0.12135500114442664
0.005706874189364461,0.12672617685206378
0.006378271152819104,0.11715877012283514
0.0003356984817273213,0.0988632028686961
-0.005706874189364461,0.0844281681544213
-0.011078049897001601,0.08845654993514916
-0.010406652933546959,0.10591287098496985
-0.005706874189364461,0.11732661936369877
-0.005706874189364461,0.11329823758297093
-0.007049668116273747,0.10188448920424201
-0.0003356984817273213,0.08778515297169451
0.004364080262455177,0.0750286106660563
0.009735255970092317,0.057572289616235596
0.010070954451819639,0.021988250553139542
0.010406652933546959,-0.028366521705958644
0.007721065079728388,-0.07838559548332952
0.010406652933546959,-0.11564812695506219
0.014435034714274816,-0.15190356298161287
0.011749446860456245,-0.1901731898985275
0.013092240787365528,-0.21770046540016783
0.013092240787365528,-0.22374303807125961
0.007721065079728388,-0.21434348058289462
0.0023498893720912484,-0.2002441443503471
0.0050354772259098195,-0.18010223544670784
0.0010070954451819635,-0.1535820553902495
-0.004364080262455177,-0.12672617685206378
-0.007049668116273747,-0.10423437857633323
-0.005706874189364461,-0.08946364538033112
-0.007049668116273747,-0.08140688181887541
-0.005706874189364461,-0.08677805752651253
-0.0030212863355458916,-0.11161974517433432
-0.005706874189364461,-0.13914702067597465
-0.0030212863355458916,-0.14384679942015716
0.003692683299000534,-0.11732661936369877
0.009735255970092317,-0.07704280155642022
0.007049668116273747,-0.03843747615777828
0.0030212863355458916,-0.00016784924086366064
0.007049668116273747,0.04750133516441596
0.007721065079728388,0.09651331349660487
0.009063859006637675,0.1240405889982452
0.011078049897001601,0.12269779507133592
0.012420843823910887,0.10859845883878842
0.009063859006637675,0.092484931715877
0.007721065079728388,0.08358892195010299
0.005706874189364461,0.0844281681544213
0.0023498893720912484,0.09752040894178682
-0.003692683299000534,0.11363393606469825
-0.0010070954451819635,0.11732661936369877
-0.004028381780727854,0.10859845883878842
-0.008392462043183033,0.09584191653315023
-0.01376363775082017,0.08627450980392155
-0.012085145342183566,0.07083237964446479
-0.008392462043183033,0.04213015945677882
-0.004364080262455177,-0.0008392462043183033
0.0050354772259098195,-0.051865415426871134
0.011749446860456245,-0.09416342412451362
0.009735255970092317,-0.12722972457465478
0.011078049897001601,-0.16231021591515984
0.011749446860456245,-0.2002441443503471
0.010406652933546959,-0.22508583199816892
0.010406652933546959,-0.22374303807125961
0.009063859006637675,-0.20830090791180284
0.009063859006637675,-0.18950179293507285
0.010070954451819639,-0.16835278858625158
0.011749446860456245,-0.14250400549324788
0.007721065079728388,-0.11430533302815289
0.006378271152819104,-0.09416342412451362
0.003692683299000534,-0.08342107270923933
0.0010070954451819635,-0.08241397726405737
-0.005706874189364461,-0.09684901197833219
-0.008392462043183033,-0.12370489051651787
-0.009063859006637675,-0.1453574425879301
-0.009063859006637675,-0.14653238727397572
-0.0050354772259098195,-0.1232013427939269
0.0003356984817273213,-0.08409246967269397
0.007721065079728388,-0.03776607919432364
0.009399557488364994,0.013931486991683832
0.005706874189364461,0.06327916380560006
0.0050354772259098195,0.10054169527733271
0.010406652933546959,0.11464103150988021
0.010406652933546959,0.10859845883878842
0.010406652933546959,0.09114213778896772
0.011749446860456245,0.07553215838864728
0.010406652933546959,0.07167162584878309
0.010406652933546959,0.08308537422751203
0.0016784924086366065,0.10238803692683297
-0.003356984817273213,0.10893415732051576
-0.0003356984817273213,0.1032272831311513
-0.0003356984817273213,0.092484931715877
-0.003692683299000534,0.08627450980392155
-0.004364080262455177,0.07821774624246586
-0.005706874189364461,0.05874723430228122
-0.0030212863355458916,0.025177386129549097
-0.0016784924086366065,-0.02400244144350347
-0.003692683299000534,-0.07402151522087433
-0.0010070954451819635,-0.11564812695506219
0.003692683299000534,-0.1525749599450675
0.006378271152819104,-0.18815899900816355
0.010406652933546959,-0.2150148775463493
0.011078049897001601,-0.22240024414435033
0.010406652933546959,-0.21165789272907606
0.011078049897001601,-0.18983749141680015
0.007721065079728388,-0.16499580376897838
0.010406652933546959,-0.14317540245670252
0.011413748378728923,-0.1304188601510643
0.007721065079728388,-0.11665522240024415
0.006042572671091783,-0.10087739375906005
0.003692683299000534,-0.08342107270923933
0.004364080262455177,-0.07838559548332952
0.0030212863355458916,-0.09819180590524147
-0.004028381780727854,-0.12773327229724574
-0.007049668116273747,-0.14334325169756618
-0.006042572671091783,-0.12974746318760969
-0.003692683299000534,-0.0955062180514229
-0.007049668116273747,-0.049851224536507206
-0.0016784924086366065,0.0005035477225909818
-0.0003356984817273213,0.05119401846341649
0.0016784924086366065,0.09449912260624094
0.011749446860456245,0.11665522240024415
0.017120622568093383,0.11984435797665367
0.016784924086366067,0.11061264972915236
0.014435034714274816,0.09684901197833219
0.012420843823910887,0.08509956511787593
0.009063859006637675,0.08174258030060273
0.007049668116273747,0.09449912260624094
0.010406652933546959,0.1096055542839704
0.013092240787365528,0.11464103150988021
0.010406652933546959,0.1096055542839704
0.006378271152819104,0.10121309224078735
-0.0003356984817273213,0.08979934386205844
-0.0003356984817273213,0.07167162584878309
-0.003692683299000534,0.041962310215915156
-0.007049668116273747,-0.0015106431677729458
-0.010406652933546959,-0.048508430609597926
-0.008392462043183033,-0.08896009765774013
-0.0030212863355458916,-0.12504768444342718
0.0010070954451819635,-0.16768139162279697
0.0023498893720912484,-0.20863660639353018
0.006378271152819104,-0.23263904783703362
0.007721065079728388,-0.22844281681544215
0.007049668116273747,-0.20662241550316623
0.007049668116273747,-0.18278782330052643
0.006378271152819104,-0.16130312046997786
0.007049668116273747,-0.14250400549324788
0.009735255970092317,-0.12336919203479056
0.013092240787365528,-0.10557717250324253
0.011078049897001601,-0.0891279468986038
0.007049668116273747,-0.08039978637369342
0.0050354772259098195,-0.09147783627069504
0.0050354772259098195,-0.11732661936369877
-0.0003356984817273213,-0.13914702067597465
-0.0010070954451819635,-0.13713282978561073
0.0010070954451819635,-0.11027695124742502
0.0010070954451819635,-0.06697184710460058
-0.006042572671091783,-0.020309758144502935
-0.010406652933546959,0.0260166323338674
-0.01376363775082017,0.07150377660791943
-0.012420843823910887,0.10457007705806058
-0.007049668116273747,0.11866941329060808
-0.0003356984817273213,0.11665522240024415
0.007721065079728388,0.10524147402151522
0.012420843823910887,0.09449912260624094
0.013092240787365528,0.08711375600823987
0.010406652933546959,0.09047074082551307
0.010406652933546959,0.10289158464942397
0.0157778286411841,0.11229114213778896
0.013092240787365528,0.11531242847333485
0.009063859006637675,0.10977340352483406
0.007721065079728388,0.09349202716105898
0.006378271152819104,0.07368581673914701
0.006378271152819104,0.05085831998168917
0.0023498893720912484,0.022491798275730522
-0.002014190890363927,-0.01896696421759365
-0.0050354772259098195,-0.06462195773250935
-0.006378271152819104,-0.10289158464942397
-0.009063859006637675,-0.14250400549324788
-0.011413748378728923,-0.18715190356298161
-0.009735255970092317,-0.22575722896162354
-0.004364080262455177,-0.23784237430380706
-0.0003356984817273213,-0.2212252994583047
0.0023498893720912484,-0.19504081788357364
0.003356984817273213,-0.1708705271992065
0.006378271152819104,-0.147875181200885
0.010070954451819639,-0.12521553368429084
0.010406652933546959,-0.10893415732051576
0.007721065079728388,-0.0963454642557412
0.009063859006637675,-0.08644235904478523
0.012420843823910887,-0.08342107270923933
0.013092240787365528,-0.09953459983215075
0.010406652933546959,-0.1292439154650187
0.0030212863355458916,-0.14804303044174866
0.0030212863355458916,-0.1364614328221561
0.0023498893720912484,-0.09785610742351414
-0.0006713969634546426,-0.0473334859235523
-0.004364080262455177,0.003189135576409552
-0.006378271152819104,0.051865415426871134
-0.007049668116273747,0.09382772564278628
-0.007049668116273747,0.12034790569924468
-0.007049668116273747,0.12773327229724574
-0.0016784924086366065,0.11783016708628975
0.0006713969634546426,0.09449912260624094
0.0050354772259098195,0.0750286106660563
0.009063859006637675,0.07133592736705577
0.011749446860456245,0.08845654993514916
0.009063859006637675,0.10843060959792476
0.006378271152819104,0.11430533302815289
0.008392462043183033,0.11094834821087966
0.009063859006637675,0.10171663996337835
0.007721065079728388,0.08778515297169451
0.006378271152819104,0.06764324406805522
0.005706874189364461,0.04145876249332417
0.008728160524910353,0.007553215838864729
0.003692683299000534,-0.03373769741359579
-0.0016784924086366065,-0.07570000762951096
-0.003356984817273213,-0.11766231784542608
-0.0023498893720912484,-0.1586175326161593
-0.003356984817273213,-0.1982299534599832
-0.0050354772259098195,-0.22441443503471423
-0.0050354772259098195,-0.22710002288853282
-0.0023498893720912484,-0.21232928969253068
-0.0003356984817273213,-0.1901731898985275
0.004699778744182497,-0.1693598840314336
0.010406652933546959,-0.1508964675364309
0.013092240787365528,-0.13310444800488286
0.008728160524910353,-0.11329823758297093
0.007721065079728388,-0.09013504234378575
0.007721065079728388,-0.07267872129396505
0.007721065079728388,-0.08274967574578469
0.0050354772259098195,-0.11699092088197145
0.009399557488364994,-0.14183260852979326
0.009063859006637675,-0.13713282978561073
0.0050354772259098195,-0.10893415732051576
0.004364080262455177,-0.07603570611123828
0.0023498893720912484,-0.03910887312123293
0.002014190890363927,0.005874723430228122
0.0023498893720912484,0.058915083543144876
0.003692683299000534,0.10389868009460593
0.0006713969634546426,0.12605477988860914
-0.0013427939269092851,0.12655832761120012
-0.005706874189364461,0.1079270618753338
-0.008392462043183033,0.08509956511787593
-0.0050354772259098195,0.0703288319218738
0.0016784924086366065,0.07704280155642022
0.0023498893720912484,0.09987029831387809
0.0050354772259098195,0.11766231784542608
0.0050354772259098195,0.11934081025406272
0.009063859006637675,0.10725566491187914
0.009063859006637675,0.09147783627069504
0.012420843823910887,0.07435721370260165
0.014099336232547494,0.054551003280689715
0.010406652933546959,0.024841687647821773
0.008392462043183033,-0.017120622568093383
0.011749446860456245,-0.061936369878690785
0.010406652933546959,-0.10356298161287861
0.006042572671091783,-0.1445181963836118
-0.0003356984817273213,-0.18631265735866331
-0.004364080262455177,-0.2183718623636225
-0.002014190890363927,-0.2264286259250782
-0.004699778744182497,-0.21434348058289462
-0.009399557488364994,-0.19319447623407338
-0.011078049897001601,-0.17170977340352483
-0.008392462043183033,-0.1508964675364309
-0.0030212863355458916,-0.12941176470588234
0.0003356984817273213,-0.11061264972915236
0.0010070954451819635,-0.10138094148165101
0.0050354772259098195,-0.092484931715877
0.011749446860456245,-0.08711375600823987
0.013092240787365528,-0.0955062180514229
0.01376363775082017,-0.11665522240024415
0.011749446860456245,-0.13142595559624626
0.013092240787365528,-0.12185854886701762
0.014099336232547494,-0.0955062180514229
0.01376363775082017,-0.05656519417105363
0.011749446860456245,-0.01326009002822919
0.008728160524910353,0.03910887312123293
0.004364080262455177,0.08979934386205844
0.002014190890363927,0.12236209658960862
-0.0010070954451819635,0.13008316166933698
-0.0016784924086366065,0.11799801632715344
-0.0030212863355458916,0.09819180590524147
-0.0050354772259098195,0.07956054016937514
-0.008728160524910353,0.07167162584878309
-0.0030212863355458916,0.08039978637369342
0.0010070954451819635,0.09651331349660487
-0.0003356984817273213,0.10691996643015184
0.0003356984817273213,0.10389868009460593
-0.0003356984817273213,0.09097428854810408
0.0023498893720912484,0.07402151522087433
0.007049668116273747,0.05740444037537193
0.007721065079728388,0.03810177767605096
0.006378271152819104,0.003189135576409552
0.007721065079728388,-0.042801556420233464
0.009063859006637675,-0.08509956511787593
0.009735255970092317,-0.12034790569924468
0.0050354772259098195,-0.15660334172579538
-0.0010070954451819635,-0.19957274738689249
-0.0010070954451819635,-0.2348210879682612
-0.0030212863355458916,-0.24220645456626225
-0.0030212863355458916,-0.22441443503471423
-0.0030212863355458916,-0.19487296864270998
-0.003692683299000534,-0.16432440680552376
-0.0023498893720912484,-0.1398184176394293
-0.0023498893720912484,-0.11866941329060808
-0.003692683299000534,-0.1032272831311513
-0.0016784924086366065,-0.09231708247501334
0.0023498893720912484,-0.08577096208133059
0.009735255970092317,-0.08963149462119477
0.009063859006637675,-0.1079270618753338
0.0050354772259098195,-0.1284046692607004
0.0050354772259098195,-0.1317616540779736
0.009063859006637675,-0.11464103150988021
0.011749446860456245,-0.08274967574578469
0.012420843823910887,-0.04414435034714275
0.013092240787365528,0.0035248340581368735
0.01376363775082017,0.059250782024872196
0.013092240787365528,0.10524147402151522
0.007721065079728388,0.12739757381551842
0.0016784924086366065,0.12471198596169988
-0.0030212863355458916,0.1079270618753338
-0.007049668116273747,0.08677805752651253
-0.011078049897001601,0.07402151522087433
-0.01376363775082017,0.07905699244678416
-0.007385366598001068,0.09651331349660487
-0.004699778744182497,0.11061264972915236
-0.006378271152819104,0.11262684061951626
-0.0010070954451819635,0.1079270618753338
0.0023498893720912484,0.10037384603646905
0.004364080262455177,0.08509956511787593
0.009735255970092317,0.05622949568932631
0.011749446860456245,0.019806210421911954
0.012085145342183566,-0.021652552071412222
0.011413748378728923,-0.060090028229190504
0.013092240787365528,-0.09483482108796826
0.015442130159456776,-0.1304188601510643
0.016449225604638743,-0.1733882658121614
0.013092240787365528,-0.2150148775463493
0.014435034714274816,-0.23179980163271532
0.012420843823910887,-0.22240024414435033
0.010406652933546959,-0.1977264057373922
0.0050354772259098195,-0.1693598840314336
-0.0030212863355458916,-0.14653238727397572
-0.007721065079728388,-0.1284046692607004
-0.005706874189364461,-0.11447318226901655
-0.004699778744182497,-0.09987029831387809
-0.005706874189364461,-0.0861066605630579
-0.005706874189364461,-0.08090333409628443
-0.003692683299000534,-0.09517051956969558
-0.0016784924086366065,-0.12202639810788128
0.003692683299000534,-0.13713282978561073
0.006378271152819104,-0.1317616540779736
0.0050354772259098195,-0.1062485694666972
0.007721065079728388,-0.06462195773250935
0.007721065079728388,-0.013092240787365528
0.011413748378728923,0.043472953383688104
0.0157778286411841,0.09147783627069504
0.014435034714274816,0.11799801632715344
0.010406652933546959,0.12269779507133592
0.007721065079728388,0.11329823758297093
0.0023498893720912484,0.10054169527733271
-0.0030212863355458916,0.08577096208133059
-0.004364080262455177,0.07301441977569237
-0.006378271152819104,0.07637140459296558
-0.008056763561455708,0.09214923323414968
-0.0023498893720912484,0.10826276035706112
-0.0016784924086366065,0.11363393606469825
-0.004699778744182497,0.10691996643015184
-0.003692683299000534,0.092484931715877
-0.004364080262455177,0.06831464103150987
-0.0030212863355458916,0.035416189822232394
0.0050354772259098195,-0.0052033264667734795
0.011413748378728923,-0.043808651865415424
0.012420843823910887,-0.07603570611123828
0.015106431677729458,-0.1079270618753338
0.011749446860456245,-0.14955367360952163
0.011749446860456245,-0.19621576256961928
0.009735255970092317,-0.2264286259250782
0.007049668116273747,-0.2307927061875334
0.009063859006637675,-0.21367208361943996
0.010070954451819639,-0.18815899900816355
0.006042572671091783,-0.16264591439688714
0.0050354772259098195,-0.13713282978561073
0.003692683299000534,-0.11866941329060808
0.0023498893720912484,-0.10591287098496985
-0.0030212863355458916,-0.09483482108796826
-0.007385366598001068,-0.08409246967269397
-0.007049668116273747,-0.08174258030060273
-0.007049668116273747,-0.09987029831387809
-0.009735255970092317,-0.12639047837033646
-0.003692683299000534,-0.13444724193179217
-0.0003356984817273213,-0.11631952391851681
0.004364080262455177,-0.08207827878233005
0.007721065079728388,-0.041794460975051496
0.010406652933546959,-0.0008392462043183033
0.012420843823910887,0.04615854123750667
0.011749446860456245,0.09097428854810408
0.011749446860456245,0.12135500114442664
0.012420843823910887,0.1304188601510643
0.013092240787365528,0.11900511177233539
0.015106431677729458,0.09617761501487754
0.01376363775082017,0.07570000762951096
0.006378271152819104,0.07200732433051041
-0.0003356984817273213,0.08509956511787593
-0.003692683299000534,0.10440222781719691
-0.004699778744182497,0.11799801632715344
-0.007385366598001068,0.11581597619592585
-0.008392462043183033,0.10222018768596933
-0.010406652933546959,0.08107118333714809
-0.006713969634546426,0.05421530479896238
-0.005706874189364461,0.019974059662775615
-0.006378271152819104,-0.020309758144502935
-0.0003356984817273213,-0.060593575951781484
0.004699778744182497,-0.0955062180514229
0.007721065079728388,-0.1287403677424277
0.009063859006637675,-0.17204547188525215
0.0157778286411841,-0.21635767147325857
0.012420843823910887,-0.24019226367589838
0.010406652933546959,-0.2331425955596246
0.011413748378728923,-0.20360112916762035
0.010406652933546959,-0.17271686884870677
0.011413748378728923,-0.14720378423743039
0.008392462043183033,-0.1257190814068818
0.0050354772259098195,-0.10641641870756083
0.0010070954451819635,-0.09114213778896772
-0.003692683299000534,-0.08543526359960325
-0.005706874189364461,-0.09097428854810408
-0.007049668116273747,-0.11128404669260701
-0.003692683299000534,-0.13847562371252
-0.0050354772259098195,-0.14737163347829402
-0.005706874189364461,-0.12773327229724574
-0.009063859006637675,-0.092484931715877
-0.009063859006637675,-0.0528725108720531
-0.002014190890363927,-0.016784924086366067
0.0010070954451819635,0.025680933852140077
0.007049668116273747,0.07234302281223774
0.011413748378728923,0.11061264972915236
0.007721065079728388,0.12941176470588234
0.009735255970092317,0.1284046692607004
0.011749446860456245,0.11464103150988021
0.011749446860456245,0.09315632867933166
0.012420843823910887,0.0797283894102388
0.013092240787365528,0.08493171587701229
0.007721065079728388,0.10087739375906005
0.004364080262455177,0.11380178530556191
0.0023498893720912484,0.11665522240024415
0.0003356984817273213,0.11161974517433432
0.0003356984817273213,0.09382772564278628
-0.0003356984817273213,0.06965743495841917
-0.003692683299000534,0.03944457160296025
-0.008392462043183033,0.003189135576409552
-0.007721065079728388,-0.03440909437705043
-0.0050354772259098195,-0.07133592736705577
-0.005706874189364461,-0.10893415732051576
-0.003692683299000534,-0.15324635690852215
-0.0003356984817273213,-0.2002441443503471
0.006378271152819104,-0.231464103150988
0.011078049897001601,-0.23784237430380706
0.013092240787365528,-0.22710002288853282
0.010406652933546959,-0.2056153200579843
0.010406652933546959,-0.1802700846875715
0.011749446860456245,-0.1512321660181582
0.010406652933546959,-0.12370489051651787
0.011749446860456245,-0.10222018768596933
0.01376363775082017,-0.08946364538033112
0.010406652933546959,-0.08207827878233005
0.007049668116273747,-0.08509956511787593
0.003692683299000534,-0.10826276035706112
0.0023498893720912484,-0.13109025711451894
-0.0030212863355458916,-0.13142595559624626
-0.007049668116273747,-0.11027695124742502
-0.009735255970092317,-0.0775463492790112
-0.005706874189364461,-0.044480048828870064
-0.004364080262455177,-0.004196231021591517
-0.005706874189364461,0.044815747310597384
-0.003692683299000534,0.09382772564278628
0.0010070954451819635,0.12437628747997252
0.008392462043183033,0.12907606622415504
0.010406652933546959,0.11665522240024415
0.011749446860456245,0.09584191653315023
0.010406652933546959,0.07435721370260165
0.008392462043183033,0.06865033951323721
0.007049668116273747,0.08644235904478523
0.007049668116273747,0.11094834821087966
0.0050354772259098195,0.12135500114442664
0.009063859006637675,0.11581597619592585
0.009735255970092317,0.10255588616769665
0.0030212863355458916,0.08711375600823987
0.0010070954451819635,0.06730754558632791
0.0010070954451819635,0.0323949034866865
-0.0003356984817273213,-0.021149004348821242
-0.0030212863355458916,-0.07200732433051041
-0.011078049897001601,-0.10826276035706112
-0.011078049897001601,-0.13444724193179217
-0.007049668116273747,-0.16717784390020599
-0.005706874189364461,-0.20427252613107502
-0.005706874189364461,-0.2247501335164416
-0.0030212863355458916,-0.22609292744335088
0.003692683299000534,-0.2133363851377127
0.007721065079728388,-0.19453727016098266
0.009399557488364994,-0.16684214541847867
0.009063859006637675,-0.1351186388952468
0.009063859006637675,-0.10725566491187914
0.013092240787365528,-0.09047074082551307
0.0157778286411841,-0.0861066605630579
0.0157778286411841,-0.0861066605630579
0.0157778286411841,-0.0988632028686961
0.011078049897001601,-0.12269779507133592
0.0050354772259098195,-0.13746852826733807
0.0010070954451819635,-0.12773327229724574
-0.0010070954451819635,-0.09785610742351414
-0.0023498893720912484,-0.06294346532387274
-0.007721065079728388,-0.026352330815594724
-0.008392462043183033,0.017959868772411687
-0.0030212863355458916,0.06831464103150987
-0.003692683299000534,0.11296253910124363
-0.0016784924086366065,0.13545433737697413
-0.0016784924086366065,0.1304188601510643
0.006378271152819104,0.11161974517433432
0.008392462043183033,0.09517051956969558
0.010406652933546959,0.08778515297169451
0.01376363775082017,0.092484931715877
0.0157778286411841,0.10037384603646905
0.012420843823910887,0.10691996643015184
0.011749446860456245,0.10843060959792476
0.010406652933546959,0.10591287098496985
0.009735255970092317,0.0988632028686961
0.010070954451819639,0.08375677119096665
0.005706874189364461,0.056900892652780956
0.0016784924086366065,0.010574502174410621
-0.0003356984817273213,-0.04213015945677882
-0.0023498893720912484,-0.0861066605630579
-0.007049668116273747,-0.11631952391851681
-0.006378271152819104,-0.1445181963836118
-0.009735255970092317,-0.18278782330052643
-0.009735255970092317,-0.21803616388189515
-0.009735255970092317,-0.23448538948653389
-0.008392462043183033,-0.22676432440680552
-0.0030212863355458916,-0.20477607385366595
0.0023498893720912484,-0.17674525062943464
0.006378271152819104,-0.14888227664606699
0.007049668116273747,-0.12504768444342718
0.008728160524910353,-0.10423437857633323
0.013092240787365528,-0.09181353475242236
0.009735255970092317,-0.08694590676737621
0.009063859006637675,-0.09181353475242236
0.007721065079728388,-0.10759136339360646
0.013092240787365528,-0.12437628747997252
0.012756542305638208,-0.1279011215381094
0.0050354772259098195,-0.10893415732051576
0.0023498893720912484,-0.07402151522087433
-0.0023498893720912484,-0.03474479285877775
-0.005706874189364461,0.00788891432059205
-0.003356984817273213,0.05354390783550774
-0.0016784924086366065,0.08979934386205844
-0.0016784924086366065,0.11178759441519796
-0.0003356984817273213,0.11799801632715344
-0.0016784924086366065,0.11329823758297093
-0.0016784924086366065,0.09987029831387809
0.0003356984817273213,0.08577096208133059
0.005706874189364461,0.08107118333714809
0.009735255970092317,0.08493171587701229
0.007385366598001068,0.09315632867933166
0.012420843823910887,0.09987029831387809
0.014435034714274816,0.10591287098496985
0.013092240787365528,0.10524147402151522
0.011413748378728923,0.09114213778896772
0.012420843823910887,0.06529335469596398
0.010406652933546959,0.02668802929732204
0.011749446860456245,-0.017624170290684367
0.0050354772259098195,-0.061936369878690785
0.0010070954451819635,-0.0988632028686961
-0.0013427939269092851,-0.12974746318760969
-0.003692683299000534,-0.16482795452811475
-0.005706874189364461,-0.20360112916762035
-0.008392462043183033,-0.2297856107423514
-0.007385366598001068,-0.2339818417639429
-0.010406652933546959,-0.21635767147325857
-0.014435034714274816,-0.18681620508125427
-0.004699778744182497,-0.1525749599450675
0.002014190890363927,-0.12370489051651787
0.003692683299000534,-0.10457007705806058
0.004364080262455177,-0.09416342412451362
0.006378271152819104,-0.0861066605630579
0.007721065079728388,-0.0800640878919661
0.013092240787365528,-0.09282063019760432
0.014435034714274816,-0.12504768444342718
0.013092240787365528,-0.1475394827191577
0.0157778286411841,-0.13881132219424736
0.011749446860456245,-0.10289158464942397
0.011413748378728923,-0.05790798809796292
0.009063859006637675,-0.01326009002822919
0.004364080262455177,0.03138780804150454
0.0023498893720912484,0.07167162584878309
-0.0016784924086366065,0.10121309224078735
-0.0016784924086366065,0.11262684061951626
-0.0003356984817273213,0.11245899137865262
-0.0006713969634546426,0.1057450217441062
-0.0030212863355458916,0.092484931715877
-0.007049668116273747,0.07838559548332952
-0.004028381780727854,0.07637140459296558
-0.0006713969634546426,0.08812085145342184
0.0023498893720912484,0.09987029831387809
0.0050354772259098195,0.10171663996337835
0.006378271152819104,0.0971847104600595
0.010406652933546959,0.09114213778896772
0.013092240787365528,0.08039978637369342
0.009063859006637675,0.05421530479896238
0.013092240787365528,0.008896009765774012
0.015106431677729458,-0.04515144579232471
0.012420843823910887,-0.08812085145342184
0.011749446860456245,-0.11564812695506219
0.007385366598001068,-0.14586099031052108
0.002014190890363927,-0.18815899900816355
-0.0016784924086366065,-0.22441443503471423
-0.004364080262455177,-0.23649958037689783
-0.004364080262455177,-0.22441443503471423
-0.005706874189364461,-0.20225833524071107
-0.008392462043183033,-0.1807736324101625
-0.007049668116273747,-0.15660334172579538
-0.007049668116273747,-0.13310444800488286
-0.0050354772259098195,-0.10893415732051576
-0.005706874189364461,-0.08677805752651253
-0.0030212863355458916,-0.0750286106660563
0.0003356984817273213,-0.0767071030746929
0.0023498893720912484,-0.10222018768596933
0.003692683299000534,-0.1347829404135195
0.0050354772259098195,-0.14653238727397572
0.009063859006637675,-0.1240405889982452
0.009063859006637675,-0.08073548485542076
0.010406652933546959,-0.035248340581368734
0.013092240787365528,0.006881818875410085
0.011749446860456245,0.048508430609597926
0.008392462043183033,0.09047074082551307
0.006378271152819104,0.12068360418097199
0.0016784924086366065,0.13192950331883724
-0.0010070954451819635,0.12588693064774548
-0.0030212863355458916,0.11178759441519796
-0.0003356984817273213,0.09584191653315023
-0.005706874189364461,0.08509956511787593
-0.005706874189364461,0.09013504234378575
0.0003356984817273213,0.10389868009460593
0.003692683299000534,0.11128404669260701
0.005706874189364461,0.11262684061951626
0.006378271152819104,0.10557717250324253
0.009735255970092317,0.09047074082551307
0.009063859006637675,0.06680399786373693
0.007721065079728388,0.03675898374914168
0.009399557488364994,-0.0052033264667734795
0.009063859006637675,-0.05706874189364462
0.010406652933546959,-0.10591287098496985
0.014435034714274816,-0.14267185473411154
0.01376363775082017,-0.1774166475928893
0.010406652933546959,-0.2089723048752575
0.007049668116273747,-0.22743572137026014
0.0016784924086366065,-0.22777141985198748
-0.0016784924086366065,-0.21367208361943996
-0.003692683299000534,-0.19487296864270998
-0.0030212863355458916,-0.17137407492179751
-0.0016784924086366065,-0.14485389486533912
-0.0030212863355458916,-0.11699092088197145
-0.007385366598001068,-0.09282063019760432
-0.008392462043183033,-0.07872129396505684
-0.004364080262455177,-0.07217517357137408
0.0010070954451819635,-0.08509956511787593
0.004364080262455177,-0.11262684061951626
0.009063859006637675,-0.13243305104142825
0.009063859006637675,-0.12672617685206378
0.007721065079728388,-0.09819180590524147
0.004364080262455177,-0.06025787747005417
0.004364080262455177,-0.019638361181048294
0.006378271152819104,0.020645456626230255
0.005706874189364461,0.06294346532387274
0.009063859006637675,0.09852750438696878
0.008728160524910353,0.11967650873579004
0.0023498893720912484,0.12521553368429084
-0.0006713969634546426,0.11598382543678949
-0.0006713969634546426,0.09701686121919585
-0.003356984817273213,0.08274967574578469
-0.005706874189364461,0.08744945448996719
-0.003692683299000534,0.10557717250324253
-0.004364080262455177,0.11766231784542608
-0.007385366598001068,0.11447318226901655
-0.004699778744182497,0.10691996643015184
-0.002014190890363927,0.09752040894178682
0.0023498893720912484,0.08342107270923933
0.003356984817273213,0.06126497291523613
0.005706874189364461,0.026184481574731057
0.009063859006637675,-0.020981155107957578
0.011749446860456245,-0.07267872129396505
0.011749446860456245,-0.11699092088197145
0.009063859006637675,-0.15542839703974973
0.010406652933546959,-0.19218738078889144
0.015106431677729458,-0.2192111085679408
0.0157778286411841,-0.22777141985198748
0.013092240787365528,-0.22105745021744103
0.009735255970092317,-0.20830090791180284
0.004699778744182497,-0.18782330052643625
0.003692683299000534,-0.16365300984206912
-0.0003356984817273213,-0.13746852826733807
0.0010070954451819635,-0.11363393606469825
-0.0050354772259098195,-0.0963454642557412
-0.007049668116273747,-0.08644235904478523
-0.009063859006637675,-0.09097428854810408
-0.008392462043183033,-0.11497672999160755
-0.0023498893720912484,-0.14418249790188448
-0.0006713969634546426,-0.15190356298161287
0.003692683299000534,-0.1270618753337911
0.0050354772259098195,-0.08677805752651253
0.0050354772259098195,-0.043305104142824444
0.008728160524910353,-0.0028534370946822307
0.012420843823910887,0.042801556420233464
0.01376363775082017,0.09282063019760432
0.013092240787365528,0.12471198596169988
0.011078049897001601,0.12739757381551842
0.013092240787365528,0.11329823758297093
0.010406652933546959,0.09500267032883192
0.005706874189364461,0.08207827878233005
0.0016784924086366065,0.08207827878233005
-0.0003356984817273213,0.09584191653315023
-0.004364080262455177,0.11464103150988021
-0.0030212863355458916,0.12001220721751735
-0.004364080262455177,0.11447318226901655
-0.006378271152819104,0.10457007705806058
-0.008392462043183033,0.09349202716105898
-0.007721065079728388,0.0750286106660563
-0.003692683299000534,0.04213015945677882
-0.004364080262455177,-0.0055390249485008005
-0.0003356984817273213,-0.05824368657969024
0.006378271152819104,-0.09953459983215075
0.009063859006637675,-0.13243305104142825
0.007721065079728388,-0.17070267795834287
0.006713969634546426,-0.21014724956130307
0.010070954451819639,-0.23515678644998858
0.014770733196002136,-0.23381399252307927
0.01846341649500267,-0.2183718623636225
0.016449225604638743,-0.1982299534599832
0.012420843823910887,-0.17607385366598
0.009063859006637675,-0.1512321660181582
0.009063859006637675,-0.12236209658960862
0.004364080262455177,-0.09584191653315023
-0.0010070954451819635,-0.0780498970016022
-0.008392462043183033,-0.07167162584878309
-0.008392462043183033,-0.08409246967269397
-0.007049668116273747,-0.11161974517433432
-0.009735255970092317,-0.13444724193179217
-0.005706874189364461,-0.13545433737697413
-0.0030212863355458916,-0.10691996643015184
-0.0006713969634546426,-0.06462195773250935
0.0050354772259098195,-0.019638361181048294
0.009399557488364994,0.025345235370412753
0.013092240787365528,0.07335011825741969
0.010406652933546959,0.11531242847333485
0.010070954451819639,0.13142595559624626
0.012420843823910887,0.1270618753337911
0.010406652933546959,0.11128404669260701
0.01376363775082017,0.09433127336537728
0.0157778286411841,0.0844281681544213
0.011078049897001601,0.08929579613946745
0.010406652933546959,0.1032272831311513
0.0050354772259098195,0.10910200656137943
0.0016784924086366065,0.1079270618753338
-0.0016784924086366065,0.10423437857633323
-0.0016784924086366065,0.09919890135042343
-0.005706874189364461,0.0861066605630579
-0.007049668116273747,0.06277561608300908
-0.011413748378728923,0.027023727779049357
-0.007049668116273747,-0.024338139925230793
-0.0016784924086366065,-0.0767071030746929
0.0006713969634546426,-0.11967650873579004
0.003692683299000534,-0.15458915083543145
0.009063859006637675,-0.18815899900816355
0.006378271152819104,-0.21803616388189515
0.006378271152819104,-0.23196765087357898
0.007721065079728388,-0.22710002288853282
0.009735255970092317,-0.2076295109483482
0.008392462043183033,-0.17943083848325322
0.010406652933546959,-0.1535820553902495
0.006378271152819104,-0.13444724193179217
0.0050354772259098195,-0.11699092088197145
0.002014190890363927,-0.09752040894178682
-0.0030212863355458916,-0.07872129396505684
-0.006378271152819104,-0.07335011825741969
-0.004699778744182497,-0.09483482108796826
-0.009735255970092317,-0.1270618753337911
-0.014435034714274816,-0.14183260852979326
-0.01376363775082017,-0.12739757381551842
-0.009063859006637675,-0.0955062180514229
-0.005706874189364461,-0.05253681239032577
-0.0030212863355458916,-0.003860532539864194
0.0010070954451819635,0.048676279850461586
0.007049668116273747,0.09517051956969558
0.011078049897001601,0.12001220721751735
0.014099336232547494,0.12269779507133592
0.012420843823910887,0.10994125276569772
0.010070954451819639,0.0963454642557412
0.009735255970092317,0.08711375600823987
0.01376363775082017,0.08711375600823987
0.013092240787365528,0.09919890135042343
0.01376363775082017,0.11061264972915236
0.014435034714274816,0.11229114213778896
0.011749446860456245,0.1079270618753338
0.007049668116273747,0.10289158464942397
-0.0003356984817273213,0.092484931715877
-0.0013427939269092851,0.07435721370260165
-0.004364080262455177,0.04615854123750667
-0.005706874189364461,-0.00016784924086366064
-0.007385366598001068,-0.05119401846341649
-0.009735255970092317,-0.0908064393072404
-0.008392462043183033,-0.12370489051651787
-0.006378271152819104,-0.166674296177615
-0.0010070954451819635,-0.2124971389333944
0.007721065079728388,-0.24187075608453498
0.011078049897001601,-0.23952086671244371
0.010070954451819639,-0.21904325932707713
0.009063859006637675,-0.19537651636530098
0.014435034714274816,-0.17170977340352483
0.015106431677729458,-0.14972152285038529
0.013092240787365528,-0.12991531242847335
0.013092240787365528,-0.11296253910124363
0.015106431677729458,-0.09433127336537728
0.013092240787365528,-0.0767071030746929
0.009735255970092317,-0.07956054016937514
0.004699778744182497,-0.10859845883878842
0.0023498893720912484,-0.13864347295338367
-0.0016784924086366065,-0.14250400549324788
-0.0016784924086366065,-0.12001220721751735
-0.0010070954451819635,-0.08140688181887541
-0.005706874189364461,-0.03508049134050507
-0.0050354772259098195,0.01695277332722972
-0.0030212863355458916,0.06865033951323721
-0.0010070954451819635,0.10457007705806058
0.003692683299000534,0.11665522240024415
0.006378271152819104,0.10775921263447012
0.007721065079728388,0.09449912260624094
0.012420843823910887,0.08744945448996719
0.013092240787365528,0.08308537422751203
0.010406652933546959,0.0844281681544213
0.009735255970092317,0.09584191653315023
0.010406652933546959,0.10759136339360646
0.009735255970092317,0.11245899137865262
0.010070954451819639,0.1065842679484245
0.006378271152819104,0.09349202716105898
0.003692683299000534,0.07771419851987486
0.0006713969634546426,0.053208209353780414
-0.004364080262455177,0.021652552071412222
-0.005706874189364461,-0.017288471808957043
-0.004364080262455177,-0.059250782024872196
-0.009063859006637675,-0.09684901197833219
-0.008728160524910353,-0.13797207598992905
-0.008392462043183033,-0.18413061722743573
-0.006378271152819104,-0.22710002288853282
-0.0030212863355458916,-0.24455634393835354
0.0010070954451819635,-0.23179980163271532
0.0050354772259098195,-0.2025940337224384
0.007721065079728388,-0.17271686884870677
0.007721065079728388,-0.15324635690852215
0.007385366598001068,-0.1381399252307927
0.011749446860456245,-0.12135500114442664
0.007721065079728388,-0.10255588616769665
0.008392462043183033,-0.08426031891355765
0.010406652933546959,-0.07838559548332952
0.013092240787365528,-0.09617761501487754
0.013092240787365528,-0.12974746318760969
0.004364080262455177,-0.1492179751277943
0.0010070954451819635,-0.13713282978561073
-0.0050354772259098195,-0.0955062180514229
-0.007049668116273747,-0.043808651865415424
-0.005706874189364461,0.0025177386129549098
-0.004364080262455177,0.04548714427405204
-0.004364080262455177,0.08644235904478523
-0.005706874189364461,0.11866941329060808
-0.006378271152819104,0.13276874952315554
-0.003692683299000534,0.12588693064774548
-0.0006713969634546426,0.10440222781719691
0.0023498893720912484,0.08274967574578469
0.007049668116273747,0.07435721370260165
0.006378271152819104,0.08946364538033112
0.007049668116273747,0.11245899137865262
0.010406652933546959,0.12169069962615398
0.009063859006637675,0.11866941329060808
0.014099336232547494,0.10725566491187914
0.01846341649500267,0.0908064393072404
0.017120622568093383,0.06797894254978255
0.01376363775082017,0.04011596856641489
0.011749446860456245,0.004867627985046159
0.009063859006637675,-0.03843747615777828
0.004364080262455177,-0.08207827878233005
0.0010070954451819635,-0.12303349355306323
-0.003356984817273213,-0.16365300984206912
-0.009735255970092317,-0.2029297322041657
-0.011078049897001601,-0.2247501335164416
-0.008392462043183033,-0.2239108873121233
-0.008392462043183033,-0.20830090791180284
-0.006042572671091783,-0.18883039597161821
0.0006713969634546426,-0.17137407492179751
0.007049668116273747,-0.15207141222247655
0.009735255970092317,-0.13243305104142825
0.007385366598001068,-0.11094834821087966
0.007049668116273747,-0.08946364538033112
0.004364080262455177,-0.07704280155642022
0.003692683299000534,-0.08342107270923933
0.0050354772259098195,-0.10893415732051576
0.012420843823910887,-0.13310444800488286
0.014435034714274816,-0.13394369420920116
0.010070954451819639,-0.11094834821087966
0.009063859006637675,-0.08023193713282978
0.007721065079728388,-0.04313725490196078
0.0010070954451819635,0.0035248340581368735
-0.0016784924086366065,0.058915083543144876
-0.0030212863355458916,0.10389868009460593
-0.004364080262455177,0.1253833829251545
-0.003692683299000534,0.1253833829251545
-0.005706874189364461,0.10910200656137943
-0.005706874189364461,0.09013504234378575
-0.005706874189364461,0.07637140459296558
-0.0016784924086366065,0.08107118333714809
0.0003356984817273213,0.10104524299992369
0.009063859006637675,0.11934081025406272
0.014435034714274816,0.12437628747997252
0.010406652933546959,0.11396963454642556
0.012756542305638208,0.0971847104600595
0.010406652933546959,0.07939269092851148
0.009735255970092317,0.05874723430228122
0.011749446860456245,0.029037918669413288
0.011749446860456245,-0.012588693064774548
0.009735255970092317,-0.054551003280689715
0.004364080262455177,-0.09365987640192262
0.0050354772259098195,-0.13579003585870145
0.0003356984817273213,-0.18345922026398107
-0.003692683299000534,-0.21971465629053175
-0.0030212863355458916,-0.22844281681544215
-0.0030212863355458916,-0.21770046540016783
-0.0023498893720912484,-0.1992370489051652
-0.005706874189364461,-0.18010223544670784
-0.007049668116273747,-0.15794613565270463
-0.0030212863355458916,-0.13327229724574652
-0.0006713969634546426,-0.10926985580224306
-0.0003356984817273213,-0.09416342412451362
0.0050354772259098195,-0.08577096208133059
0.008392462043183033,-0.08476386663614863
0.007721065079728388,-0.09600976577401388
0.007721065079728388,-0.11900511177233539
0.007049668116273747,-0.13444724193179217
0.011078049897001601,-0.12437628747997252
0.011749446860456245,-0.09852750438696878
0.013092240787365528,-0.0639505607690547
0.011749446860456245,-0.02366674296177615
0.009063859006637675,0.02668802929732204
0.009063859006637675,0.0797283894102388
0.0050354772259098195,0.11665522240024415
-0.0003356984817273213,0.12941176470588234
-0.0003356984817273213,0.12068360418097199
-0.004364080262455177,0.10389868009460593
-0.009063859006637675,0.08711375600823987
-0.008392462043183033,0.07905699244678416
-0.010406652933546959,0.08577096208133059
-0.008392462043183033,0.10121309224078735
-0.0030212863355458916,0.11514457923247119
-0.0010070954451819635,0.11464103150988021
0.007721065079728388,0.10121309224078735
0.010406652933546959,0.08224612802319371
0.007385366598001068,0.064789806973373
0.007721065079728388,0.04615854123750667
0.007049668116273747,0.01527428091859312
0.010070954451819639,-0.03138780804150454
0.012420843823910887,-0.08140688181887541
0.008728160524910353,-0.12236209658960862
0.006378271152819104,-0.1586175326161593
0.0050354772259098195,-0.2002441443503471
0.003692683299000534,-0.23247119859617
0.003692683299000534,-0.23868162050812544
0.0010070954451819635,-0.223071641107805
-0.0023498893720912484,-0.19554436560616464
-0.0016784924086366065,-0.16801709010452429
-0.007049668116273747,-0.1487144274052033
-0.012756542305638208,-0.13058670939192796
-0.011078049897001601,-0.11396963454642556
-0.008392462043183033,-0.09819180590524147
-0.004364080262455177,-0.08744945448996719
0.0010070954451819635,-0.08677805752651253
0.006378271152819104,-0.10389868009460593
0.009063859006637675,-0.12773327229724574
0.009063859006637675,-0.1351186388952468
0.012756542305638208,-0.12101930266269931
0.0157778286411841,-0.0891279468986038
0.0157778286411841,-0.049851224536507206
0.015106431677729458,-0.001846341649500267
0.012420843823910887,0.054551003280689715
0.007721065079728388,0.10389868009460593
0.004364080262455177,0.13008316166933698
0.0030212863355458916,0.1257190814068818
0.0010070954451819635,0.10691996643015184
0.0023498893720912484,0.0891279468986038
-0.004364080262455177,0.08039978637369342
