EMG Sensor 0,EMG Sensor 1
0.0,0.0
0.0,0.0
0.0,0.0
0.0,0.0
0.0,0.0
0.0,0.0
0.0,0.0
0.0,0.0
0.0,0.0
0.0,0.0
0.0,0.0
0.0,0.0
0.0,0.0
0.0,0.0
0.0,0.0
0.0,0.0
0.0,0.0
0.0,0.0
0.0,0.0
0.0,0.0
0.0,0.0
0.0,0.0
0.0,0.0
0.0,0.0
0.0,0.0
0.0,0.0
0.0,0.0
0.0,0.0
0.0,0.0
0.0,0.0
0.0,0.0
0.0,0.0
0.0,0.0
0.0,0.0
0.0,0.0
0.0,0.0
0.0,0.0
0.0,0.0
0.0,0.0
0.0,0.0
0.0,0.0
0.0,0.0
0.0,0.0
0.0,0.0
0.0,0.0
0.0,0.0
0.0,0.0
0.0,0.0
0.0,0.0
0.0,0.0
0.0,0.0
0.0,0.0
0.0,0.0
0.0,0.0
0.0,0.0
0.0,0.0
0.0,0.0
0.0,0.0
0.0,0.0
0.0,0.0
0.0,0.0
0.0,0.0
0.0,0.0
0.0,0.0
0.0,0.0
0.0,0.0
0.0,0.0
0.0,0.0
0.0,0.0
0.0,0.0
0.0,0.0
0.0,0.0
0.0,0.0
0.0,0.0
0.0,0.0
0.0,0.0
0.0,0.0
0.0,0.0
0.0,0.0
0.0,0.0
0.0,0.0
0.0,0.0
0.0,0.0
0.0,0.0
0.0,0.0
0.0,0.0
0.0,0.0
0.0,0.0
0.0,0.0
0.0,0.0
0.0,0.0
0.0,0.0
0.0,0.0
0.0,0.0
0.0,0.0
0.0,0.0
0.0,0.0
0.0,0.0
0.0,0.0
0.0,0.0
0.0,0.0
0.0,0.0
0.0,0.0
0.0,0.0
0.0,0.0
0.0,0.0
0.0,0.0
0.0,0.0
0.0,0.0
0.0,0.0
0.0,0.0
0.0,0.0
0.0,0.0
0.0,0.0
0.0,0.0
0.0,0.0
0.0,0.0
0.0,0.0
0.0,0.0
0.0,0.0
0.0,0.0
0.0,0.0
0.0,0.0
0.0,0.0
0.0,0.0
0.0,0.0
0.0,0.0
0.0,0.0
0.0,0.0
0.0,0.0
0.0,0.0
0.0,0.0
0.0,0.0
0.0,0.0
0.0,0.0
0.0,0.0
0.0,0.0
0.0,0.0
0.0,0.0
0.0,0.0
0.0,0.0
0.0,0.0
0.0,0.0
0.0,0.0
0.0,0.0
0.0,0.0
0.0,0.0
0.0,0.0
0.0,0.0
0.0,0.0
0.0,0.0
0.0,0.0
0.0,0.0
0.0,0.0
0.0,0.0
0.0,0.0
0.0,0.0
0.0,0.0
0.0,0.0
0.0,0.0
0.0,0.0
0.0,0.0
0.0,0.0
0.0,0.0
0.0,0.0
0.0,0.0
0.0,0.0
0.0,0.0
0.0,0.0
0.0,0.0
0.0,0.0
0.0,0.0
0.0,0.0
0.0,0.0
0.0,0.0
0.0,0.0
0.0,0.0
0.0,0.0
0.0,0.0
0.0,0.0
0.0,0.0
0.0,0.0
0.0,0.0
0.0,0.0
0.0,0.0
0.0,0.0
0.0,0.0
0.0,0.0
0.0,0.0
0.0,0.0
0.0,0.0
0.0,0.0
0.0,0.0
0.0,0.0
0.0,0.0
0.0,0.0
0.0,0.0
0.0,0.0
0.0,0.0
0.0,0.0
0.0,0.0
0.0,0.0
0.0,0.0
0.0,0.0
-0.003692683299000534,0.0
0.006042572671091783,0.0
0.007721065079728388,0.0
0.009735255970092317,0.0
0.011078049897001601,0.0
0.007049668116273747,0.0
0.010406652933546959,0.0
0.010406652933546959,0.0
0.008728160524910353,0.0
0.011749446860456245,0.0
0.009063859006637675,0.0
0.0016784924086366065,0.0
-0.002014190890363927,0.0
-0.0030212863355458916,0.0
0.0016784924086366065,0.0
0.0010070954451819635,0.0
-0.0003356984817273213,0.0
-0.003692683299000534,0.0
-0.008392462043183033,0.0
-0.005706874189364461,0.0
-0.005706874189364461,0.0
-0.0023498893720912484,0.0
0.0023498893720912484,0.0
0.007721065079728388,0.0
0.014099336232547494,0.0
0.014435034714274816,0.0
0.010406652933546959,0.0
0.010070954451819639,0.0
0.009063859006637675,0.0
0.010406652933546959,0.0
0.011749446860456245,0.0
0.009735255970092317,0.0
0.0003356984817273213,0.0
-0.005706874189364461,0.0
-0.009063859006637675,0.0
-0.008392462043183033,0.0
-0.009735255970092317,0.0
-0.0023498893720912484,0.0
0.0023498893720912484,0.0
0.0030212863355458916,0.0
0.0006713969634546426,0.0
0.0023498893720912484,0.0
0.006378271152819104,0.0
0.010070954451819639,0.0
0.011413748378728923,0.0
0.012420843823910887,0.0
0.013092240787365528,0.0
0.010070954451819639,0.0
0.003692683299000534,0.0
0.004364080262455177,0.0
0.006378271152819104,0.0
0.011078049897001601,0.0
0.010406652933546959,0.0
0.008392462043183033,0.0
0.0050354772259098195,0.0
-0.0010070954451819635,0.0
-0.014435034714274816,0.0
-0.03256275272755016,0.0
-0.021149004348821242,0.0
0.014435034714274816,0.0
0.01846341649500267,0.0
0.007049668116273747,0.0
0.003692683299000534,0.0
0.003692683299000534,0.0
0.007721065079728388,0.0
0.008728160524910353,0.0
0.010406652933546959,0.0
0.007721065079728388,0.0
0.006378271152819104,0.0
0.007049668116273747,0.0
0.007049668116273747,0.0
0.009063859006637675,0.0
0.011749446860456245,0.0
0.01846341649500267,0.0
0.014435034714274816,0.0
0.011749446860456245,0.0
0.008728160524910353,0.0
0.0050354772259098195,0.0
-0.004364080262455177,0.0
-0.006378271152819104,0.0
-0.007721065079728388,0.0
-0.0050354772259098195,0.0
-0.003692683299000534,0.0
-0.0050354772259098195,0.0
-0.0003356984817273213,0.0
0.005706874189364461,0.0
0.0016784924086366065,0.0
-0.0010070954451819635,0.0
0.0010070954451819635,0.0
0.0010070954451819635,0.0
-0.0016784924086366065,0.0
0.0010070954451819635,0.0
0.005706874189364461,0.0
0.0050354772259098195,0.0
0.0050354772259098195,0.0
0.007721065079728388,0.0
0.003692683299000534,0.0
0.003692683299000534,0.0
0.0050354772259098195,0.0
0.004364080262455177,0.0
0.0023498893720912484,0.0
0.004364080262455177,0.0
0.0030212863355458916,0.0
-0.0003356984817273213,0.0
0.0023498893720912484,0.0
0.004699778744182497,0.0
0.011078049897001601,0.0
0.011749446860456245,0.0
0.010070954451819639,0.0
0.008392462043183033,0.0
0.009063859006637675,0.0
0.012420843823910887,0.0
0.011749446860456245,0.0
0.009063859006637675,0.0
0.007721065079728388,0.0
0.0050354772259098195,0.0
0.003692683299000534,0.0
0.0023498893720912484,0.0
-0.0016784924086366065,0.0
-0.003692683299000534,0.0
-0.0030212863355458916,0.0
-0.0016784924086366065,0.0
-0.006378271152819104,0.0
-0.005706874189364461,0.0
0.0023498893720912484,0.0
0.0010070954451819635,0.0
0.002014190890363927,0.0
0.0010070954451819635,0.0
0.003692683299000534,0.0
0.012420843823910887,0.0
0.012420843823910887,0.0
0.007721065079728388,0.0
0.0050354772259098195,0.0
0.007385366598001068,0.0
0.009735255970092317,0.0
0.012420843823910887,0.0
0.010406652933546959,0.0
0.006378271152819104,0.0
0.0023498893720912484,0.0
-0.0010070954451819635,0.0
0.0023498893720912484,0.0
0.007721065079728388,0.0
0.003692683299000534,0.0
-0.004364080262455177,0.0
-0.0050354772259098195,0.0
-0.006378271152819104,0.0
-0.002014190890363927,0.0
-0.0006713969634546426,0.0
0.0013427939269092851,0.0
0.003356984817273213,0.0
0.003692683299000534,0.0
0.006378271152819104,0.0
0.006378271152819104,0.0
0.006378271152819104,0.0
0.006378271152819104,0.0
0.009063859006637675,0.0
0.011413748378728923,0.0
0.009735255970092317,0.0
0.009063859006637675,0.0
0.005706874189364461,0.0
0.0023498893720912484,0.0
0.004364080262455177,0.0
0.0050354772259098195,0.0
0.0023498893720912484,0.0
-0.0023498893720912484,0.0
-0.003692683299000534,0.0
0.0006713969634546426,0.0
0.006378271152819104,0.0
0.007721065079728388,0.0
0.010406652933546959,0.0
0.013092240787365528,0.0
0.009735255970092317,0.0
0.0023498893720912484,0.0
-0.0016784924086366065,0.0
-0.005706874189364461,0.0
0.0010070954451819635,0.0
0.0050354772259098195,0.0
0.004028381780727854,0.0
0.006378271152819104,0.0
0.005706874189364461,0.0
0.0010070954451819635,0.0
-0.0030212863355458916,0.0
-0.003692683299000534,0.0
-0.0016784924086366065,0.0
-0.0003356984817273213,0.0
-0.0030212863355458916,0.0
-0.0010070954451819635,0.0
0.003356984817273213,0.0
0.0023498893720912484,0.0
0.006042572671091783,0.0
0.006378271152819104,0.0
0.009063859006637675,0.0
0.010070954451819639,0.0
0.011413748378728923,0.0
0.013092240787365528,0.0
0.015106431677729458,0.0
0.013092240787365528,0.0
0.012420843823910887,0.0
0.009735255970092317,0.0
0.003356984817273213,0.0
-0.0030212863355458916,0.0
-0.003356984817273213,0.0
-0.004364080262455177,0.0
-0.0010070954451819635,0.0
-0.0016784924086366065,0.0
-0.005706874189364461,0.0
-0.0003356984817273213,0.0
-0.0016784924086366065,0.0
-0.006378271152819104,0.0
-0.002014190890363927,0.0
0.0050354772259098195,0.0
0.011749446860456245,0.0
0.014435034714274816,-0.09282063019760432
0.017792019531548024,-0.10255588616769665
0.013092240787365528,-0.10893415732051576
-0.0010070954451819635,-0.10389868009460593
-0.017792019531548024,-0.09500267032883192
-0.008392462043183033,-0.08493171587701229
0.021820401312275882,-0.07402151522087433
0.017120622568093383,-0.06462195773250935
0.010406652933546959,-0.05992217898832684
0.008392462043183033,-0.057572289616235596
0.006378271152819104,-0.051529716945143814
0.0050354772259098195,-0.04515144579232471
-0.0003356984817273213,-0.04682993820096131
-0.0010070954451819635,-0.05857938506141757
-0.004699778744182497,-0.06932173647669183
-0.004364080262455177,-0.06663614862287326
-0.0003356984817273213,-0.054551003280689715
-0.0016784924086366065,-0.041123064011596856
0.0023498893720912484,-0.030380712596322572
0.007721065079728388,-0.01896696421759365
0.006378271152819104,-0.0023498893720912484
0.009735255970092317,0.012588693064774548
0.012420843823910887,0.018631265735866327
0.011413748378728923,0.01695277332722972
0.003692683299000534,0.01326009002822919
-0.0016784924086366065,0.007553215838864729
0.004364080262455177,0.0035248340581368735
0.008728160524910353,0.005874723430228122
0.012420843823910887,0.013092240787365528
0.013092240787365528,0.01829556725413901
0.007049668116273747,0.019806210421911954
0.0023498893720912484,0.01594567788204776
-0.0030212863355458916,0.009231708247501335
-0.0030212863355458916,0.0025177386129549098
-0.005706874189364461,-0.007049668116273747
-0.007049668116273747,-0.019974059662775615
-0.007721065079728388,-0.03776607919432364
-0.006042572671091783,-0.054551003280689715
-0.0030212863355458916,-0.06730754558632791
0.0003356984817273213,-0.08140688181887541
0.004364080262455177,-0.09701686121919585
0.0023498893720912484,-0.10725566491187914
0.003692683299000534,-0.10490577553978789
0.006378271152819104,-0.09349202716105898
0.009735255970092317,-0.08274967574578469
0.006378271152819104,-0.07536430914778362
0.0023498893720912484,-0.06965743495841917
0.0050354772259098195,-0.0639505607690547
0.009063859006637675,-0.059250782024872196
0.007721065079728388,-0.05656519417105363
0.0050354772259098195,-0.05656519417105363
-0.0010070954451819635,-0.057572289616235596
-0.0030212863355458916,-0.062272068360418105
0.004364080262455177,-0.07133592736705577
0.003692683299000534,-0.07603570611123828
-0.0003356984817273213,-0.07066453040360113
-0.0016784924086366065,-0.05740444037537193
-0.0030212863355458916,-0.041123064011596856
-0.0023498893720912484,-0.02333104448004883
-0.0010070954451819635,-0.006210421911955443
-0.0010070954451819635,0.011917296101319903
0.002014190890363927,0.02333104448004883
0.009063859006637675,0.0213168535896849
0.010406652933546959,0.011078049897001601
0.010406652933546959,0.0010070954451819635
0.013092240787365528,-0.0015106431677729458
0.013092240787365528,0.003860532539864194
0.015106431677729458,0.011917296101319903
0.016449225604638743,0.01326009002822919
0.011749446860456245,0.011581597619592583
0.007721065079728388,0.011581597619592583
0.0050354772259098195,0.014602883955138474
0.0023498893720912484,0.01326009002822919
0.002014190890363927,0.004531929503318838
0.003692683299000534,-0.009063859006637675
-0.0010070954451819635,-0.028366521705958644
-0.0003356984817273213,-0.04783703364614328
-0.0030212863355458916,-0.062272068360418105
-0.009063859006637675,-0.07133592736705577
-0.007049668116273747,-0.07905699244678416
-0.004364080262455177,-0.0908064393072404
0.0010070954451819635,-0.1002059967956054
0.004364080262455177,-0.10691996643015184
0.0003356984817273213,-0.1062485694666972
0.0003356984817273213,-0.09752040894178682
-0.0003356984817273213,-0.08375677119096665
0.0010070954451819635,-0.06932173647669183
0.0023498893720912484,-0.05824368657969024
0.0023498893720912484,-0.049851224536507206
0.011749446860456245,-0.049851224536507206
0.0157778286411841,-0.05673304341191729
0.014435034714274816,-0.06999313344014649
0.010070954451819639,-0.08140688181887541
0.010070954451819639,-0.0800640878919661
0.006378271152819104,-0.06865033951323721
-0.009063859006637675,-0.054551003280689715
-0.022827496757457846,-0.041123064011596856
-0.0030212863355458916,-0.025177386129549097
0.017120622568093383,-0.006881818875410085
0.0050354772259098195,0.009063859006637675
-0.0006713969634546426,0.01594567788204776
-0.003356984817273213,0.017959868772411687
-0.0016784924086366065,0.017624170290684367
0.0023498893720912484,0.01812771801327535
0.0050354772259098195,0.01594567788204776
0.007721065079728388,0.011917296101319903
0.010406652933546959,0.011917296101319903
0.007049668116273747,0.01326009002822919
0.007385366598001068,0.01594567788204776
0.012420843823910887,0.01560997940032044
0.013092240787365528,0.013931486991683832
0.009063859006637675,0.01560997940032044
0.010070954451819639,0.015442130159456776
0.012420843823910887,0.0052033264667734795
0.010406652933546959,-0.01896696421759365
0.006378271152819104,-0.041794460975051496
0.0010070954451819635,-0.05555809872587166
-0.0016784924086366065,-0.06294346532387274
-0.004699778744182497,-0.0703288319218738
-0.0030212863355458916,-0.08543526359960325
-0.004364080262455177,-0.09953459983215075
-0.004364080262455177,-0.1079270618753338
-0.003692683299000534,-0.10994125276569772
0.0003356984817273213,-0.10490577553978789
0.005706874189364461,-0.09282063019760432
0.004364080262455177,-0.07771419851987486
0.006378271152819104,-0.0639505607690547
0.007049668116273747,-0.05387960631723506
0.009735255970092317,-0.051529716945143814
0.010406652933546959,-0.051529716945143814
0.007721065079728388,-0.05119401846341649
0.004699778744182497,-0.06092927443350881
0.004699778744182497,-0.0797283894102388
0.004364080262455177,-0.08677805752651253
0.004364080262455177,-0.07536430914778362
0.0016784924086366065,-0.05085831998168917
0.0030212863355458916,-0.027359426260776684
0.0023498893720912484,-0.010406652933546959
-0.0006713969634546426,0.0021820401312275884
-0.003692683299000534,0.009231708247501335
-0.0030212863355458916,0.013931486991683832
-0.0016784924086366065,0.012588693064774548
-0.0016784924086366065,0.011245899137865261
-0.0016784924086366065,0.013931486991683832
-0.0016784924086366065,0.013931486991683832
-0.0016784924086366065,0.01292439154650187
0.0023498893720912484,0.012588693064774548
0.006378271152819104,0.014602883955138474
0.004364080262455177,0.017288471808957043
0.006042572671091783,0.020645456626230255
0.009735255970092317,0.022323949034866862
0.005706874189364461,0.01829556725413901
0.005706874189364461,0.008560311284046692
0.003692683299000534,-0.008896009765774012
0.0016784924086366065,-0.03205920500495917
0.0023498893720912484,-0.05119401846341649
0.0050354772259098195,-0.061936369878690785
0.009063859006637675,-0.06898603799496453
0.009063859006637675,-0.0800640878919661
0.007385366598001068,-0.0955062180514229
0.0030212863355458916,-0.10759136339360646
-0.003692683299000534,-0.10859845883878842
-0.011078049897001601,-0.1002059967956054
-0.015106431677729458,-0.09349202716105898
-0.009063859006637675,-0.092484931715877
-0.007721065079728388,-0.08812085145342184
-0.003692683299000534,-0.07905699244678416
0.003692683299000534,-0.06646829938200961
0.006378271152819104,-0.05790798809796292
0.009063859006637675,-0.05656519417105363
0.009735255970092317,-0.06092927443350881
0.007049668116273747,-0.07066453040360113
0.0050354772259098195,-0.07939269092851148
0.007721065079728388,-0.08274967574578469
0.009063859006637675,-0.07284657053482871
0.007721065079728388,-0.05085831998168917
0.011749446860456245,-0.028366521705958644
0.013092240787365528,-0.009903105210955977
0.007721065079728388,0.0005035477225909818
0.0010070954451819635,0.008896009765774012
-0.0003356984817273213,0.01560997940032044
-0.0003356984817273213,0.019302662699320974
-0.0030212863355458916,0.018631265735866327
-0.0030212863355458916,0.017288471808957043
-0.004364080262455177,0.017959868772411687
-0.007385366598001068,0.01846341649500267
-0.0030212863355458916,0.01829556725413901
-0.0006713969634546426,0.017120622568093383
0.0003356984817273213,0.01829556725413901
0.009063859006637675,0.022995345998321506
0.007721065079728388,0.02265964751659419
0.009063859006637675,0.014267185473411156
0.010406652933546959,0.0008392462043183033
0.011749446860456245,-0.014938582436865796
0.014435034714274816,-0.03172350652323186
0.017120622568093383,-0.049851224536507206
0.015106431677729458,-0.06697184710460058
0.012756542305638208,-0.08207827878233005
0.006378271152819104,-0.09819180590524147
0.0023498893720912484,-0.10490577553978789
-0.0030212863355458916,-0.10154879072251469
-0.004364080262455177,-0.09483482108796826
-0.0003356984817273213,-0.0891279468986038
0.0016784924086366065,-0.08560311284046693
0.0003356984817273213,-0.0780498970016022
-0.0003356984817273213,-0.06814679179064621
-0.0030212863355458916,-0.05857938506141757
-0.0003356984817273213,-0.049851224536507206
0.0023498893720912484,-0.04599069199664301
0.0050354772259098195,-0.048844129091325246
0.003692683299000534,-0.0639505607690547
0.0050354772259098195,-0.07939269092851148
0.007721065079728388,-0.08241397726405737
0.005706874189364461,-0.07066453040360113
0.004364080262455177,-0.053208209353780414
0.003692683299000534,-0.03608758678568704
0.005706874189364461,-0.01896696421759365
0.0030212863355458916,-0.004196231021591517
0.007049668116273747,0.006546120393682764
0.0050354772259098195,0.01326009002822919
0.0030212863355458916,0.017959868772411687
0.0010070954451819635,0.023163195239185166
0.0023498893720912484,0.023163195239185166
-0.0016784924086366065,0.016617074845502403
-0.0016784924086366065,0.011917296101319903
-0.0003356984817273213,0.01560997940032044
-0.004364080262455177,0.02265964751659419
-0.003692683299000534,0.02668802929732204
-0.003692683299000534,0.02400244144350347
-0.0003356984817273213,0.0213168535896849
0.008392462043183033,0.016617074845502403
0.007721065079728388,0.010574502174410621
0.013092240787365528,0.0011749446860456242
0.012420843823910887,-0.014267185473411156
0.007721065079728388,-0.0323949034866865
0.004364080262455177,-0.051865415426871134
0.008392462043183033,-0.07016098268101013
0.008728160524910353,-0.08812085145342184
0.0050354772259098195,-0.10289158464942397
0.006378271152819104,-0.11111619745174332
0.003692683299000534,-0.11061264972915236
0.0023498893720912484,-0.10389868009460593
0.003692683299000534,-0.09617761501487754
-0.0003356984817273213,-0.08677805752651253
-0.0030212863355458916,-0.07469291218432898
-0.0010070954451819635,-0.06126497291523613
-0.0016784924086366065,-0.050186923018234526
-0.0030212863355458916,-0.04582284275577936
-0.0023498893720912484,-0.04615854123750667
0.0003356984817273213,-0.05656519417105363
0.0016784924086366065,-0.07200732433051041
-0.0003356984817273213,-0.08107118333714809
0.0016784924086366065,-0.07402151522087433
0.007721065079728388,-0.054551003280689715
0.007049668116273747,-0.037094682230869
0.003692683299000534,-0.025345235370412753
0.007721065079728388,-0.012252994583047227
0.010406652933546959,0.006546120393682764
0.006378271152819104,0.023834592202639806
0.0010070954451819635,0.02937361715114061
0.006378271152819104,0.02265964751659419
0.007049668116273747,0.012252994583047227
0.003692683299000534,0.004867627985046159
0.0023498893720912484,0.0052033264667734795
-0.0030212863355458916,0.01326009002822919
-0.003692683299000534,0.0213168535896849
-0.0016784924086366065,0.025680933852140077
-0.0050354772259098195,0.02265964751659419
-0.005706874189364461,0.016449225604638743
-0.0030212863355458916,0.009735255970092317
-0.003692683299000534,0.003189135576409552
-0.0016784924086366065,-0.0021820401312275884
0.0010070954451819635,-0.011917296101319903
0.007385366598001068,-0.028702220187685965
0.010406652933546959,-0.051865415426871134
0.006378271152819104,-0.06999313344014649
0.01376363775082017,-0.08493171587701229
0.013092240787365528,-0.0988632028686961
0.012420843823910887,-0.11161974517433432
0.014435034714274816,-0.11766231784542608
0.011749446860456245,-0.11396963454642556
0.009735255970092317,-0.10759136339360646
0.0050354772259098195,-0.10389868009460593
0.0010070954451819635,-0.0971847104600595
0.0016784924086366065,-0.08241397726405737
0.0050354772259098195,-0.06562905317769131
0.003692683299000534,-0.05387960631723506
-0.0016784924086366065,-0.052201113908598454
-0.0016784924086366065,-0.057236591134508276
-0.0050354772259098195,-0.06764324406805522
-0.007049668116273747,-0.0767071030746929
-0.0030212863355458916,-0.08107118333714809
-0.0010070954451819635,-0.08073548485542076
-0.0023498893720912484,-0.06881818875410085
-0.0003356984817273213,-0.048676279850461586
0.0023498893720912484,-0.024673838406958113
0.007721065079728388,-0.001846341649500267
0.007721065079728388,0.01594567788204776
0.007049668116273747,0.02668802929732204
0.012420843823910887,0.02668802929732204
0.012420843823910887,0.019302662699320974
0.013092240787365528,0.008224612802319372
0.007721065079728388,0.003860532539864194
0.003356984817273213,0.010574502174410621
0.003692683299000534,0.020645456626230255
0.0010070954451819635,0.024673838406958113
-0.003692683299000534,0.020645456626230255
-0.004364080262455177,0.016617074845502403
-0.003692683299000534,0.01326009002822919
-0.005706874189364461,0.014267185473411156
-0.005706874189364461,0.01376363775082017
-0.0016784924086366065,0.004867627985046159
-0.0016784924086366065,-0.013931486991683832
-0.0030212863355458916,-0.03776607919432364
0.002014190890363927,-0.059250782024872196
0.003692683299000534,-0.0780498970016022
0.006378271152819104,-0.09416342412451362
0.010406652933546959,-0.10356298161287861
0.010070954451819639,-0.10826276035706112
0.007721065079728388,-0.10893415732051576
0.009063859006637675,-0.10389868009460593
0.009063859006637675,-0.09584191653315023
0.010406652933546959,-0.08375677119096665
0.007721065079728388,-0.07301441977569237
0.006378271152819104,-0.06999313344014649
0.0050354772259098195,-0.06730754558632791
0.003356984817273213,-0.06126497291523613
-0.0003356984817273213,-0.05387960631723506
0.0010070954451819635,-0.05253681239032577
-0.0023498893720912484,-0.06327916380560006
-0.005706874189364461,-0.07402151522087433
-0.0030212863355458916,-0.0775463492790112
-0.0003356984817273213,-0.06999313344014649
-0.0003356984817273213,-0.052201113908598454
0.002014190890363927,-0.026352330815594724
0.007721065079728388,-0.0008392462043183033
0.009735255970092317,0.018631265735866327
0.013092240787365528,0.03105210955977722
0.011749446860456245,0.03407339589532311
0.0050354772259098195,0.030380712596322572
0.007385366598001068,0.02265964751659419
0.007721065079728388,0.014602883955138474
0.007721065079728388,0.010238803692683297
0.009063859006637675,0.012252994583047227
0.007721065079728388,0.01913481345845731
0.003692683299000534,0.021652552071412222
0.0023498893720912484,0.017792019531548024
0.0010070954451819635,0.011245899137865261
-0.0010070954451819635,0.009567406729228655
-0.004364080262455177,0.011245899137865261
-0.0030212863355458916,0.003860532539864194
-0.0013427939269092851,-0.01527428091859312
-0.0030212863355458916,-0.03944457160296025
-0.005706874189364461,-0.057236591134508276
-0.004364080262455177,-0.06630045014114595
-0.0016784924086366065,-0.07939269092851148
0.003356984817273213,-0.10171663996337835
0.007721065079728388,-0.11866941329060808
0.010406652933546959,-0.12336919203479056
0.009735255970092317,-0.11430533302815289
0.007721065079728388,-0.09970244907301441
0.005706874189364461,-0.08778515297169451
0.003692683299000534,-0.07939269092851148
0.006713969634546426,-0.0750286106660563
0.006378271152819104,-0.07066453040360113
0.007721065079728388,-0.06462195773250935
0.007721065079728388,-0.05522240024414436
0.0050354772259098195,-0.049851224536507206
0.0010070954451819635,-0.057572289616235596
-0.0003356984817273213,-0.07469291218432898
0.0010070954451819635,-0.08744945448996719
-0.004364080262455177,-0.08342107270923933
-0.008392462043183033,-0.06797894254978255
-0.006378271152819104,-0.04716563668268864
-0.0030212863355458916,-0.022491798275730522
0.004364080262455177,0.0010070954451819635
0.0023498893720912484,0.019638361181048294
0.0050354772259098195,0.030045014114595252
0.006713969634546426,0.0323949034866865
0.009063859006637675,0.030045014114595252
0.008392462043183033,0.027359426260776684
0.004699778744182497,0.02400244144350347
0.0023498893720912484,0.021820401312275882
0.007721065079728388,0.02265964751659419
0.009063859006637675,0.024338139925230793
0.009735255970092317,0.02400244144350347
0.007385366598001068,0.024673838406958113
0.0050354772259098195,0.025345235370412753
0.0023498893720912484,0.018631265735866327
-0.0030212863355458916,0.005874723430228122
-0.0030212863355458916,-0.006546120393682764
-0.0010070954451819635,-0.017288471808957043
-0.0010070954451819635,-0.02937361715114061
-0.0003356984817273213,-0.04515144579232471
0.0016784924086366065,-0.06462195773250935
0.0050354772259098195,-0.09030289158464942
0.0030212863355458916,-0.11531242847333485
0.0023498893720912484,-0.12907606622415504
0.003692683299000534,-0.12437628747997252
0.0050354772259098195,-0.10826276035706112
0.006378271152819104,-0.09483482108796826
0.006378271152819104,-0.08543526359960325
0.007049668116273747,-0.08073548485542076
0.006042572671091783,-0.07234302281223774
0.0050354772259098195,-0.0639505607690547
0.0050354772259098195,-0.058075837338826576
0.007049668116273747,-0.053208209353780414
0.006378271152819104,-0.054551003280689715
0.004699778744182497,-0.06562905317769131
0.0023498893720912484,-0.08207827878233005
0.0006713969634546426,-0.0908064393072404
-0.0010070954451819635,-0.08409246967269397
-0.0003356984817273213,-0.06361486228732739
0.0010070954451819635,-0.037094682230869
0.0006713969634546426,-0.010910200656137941
0.0010070954451819635,0.013931486991683832
0.0010070954451819635,0.03390554665445944
0.0023498893720912484,0.04213015945677882
0.003356984817273213,0.04011596856641489
0.007049668116273747,0.03138780804150454
0.010070954451819639,0.01829556725413901
0.011749446860456245,0.012588693064774548
0.011749446860456245,0.01594567788204776
0.010070954451819639,0.025345235370412753
0.008392462043183033,0.030716411078049892
0.0050354772259098195,0.03121995880064088
0.007721065079728388,0.030045014114595252
0.007721065079728388,0.022995345998321506
0.0016784924086366065,0.01292439154650187
-0.0010070954451819635,0.001846341649500267
-0.004028381780727854,-0.008896009765774012
-0.0023498893720912484,-0.022995345998321506
-0.003692683299000534,-0.04213015945677882
-0.0013427939269092851,-0.060090028229190504
-0.0030212863355458916,-0.08039978637369342
-0.005706874189364461,-0.10087739375906005
-0.0030212863355458916,-0.11833371480888075
-0.005706874189364461,-0.12370489051651787
-0.0016784924086366065,-0.11699092088197145
0.003356984817273213,-0.10490577553978789
0.006713969634546426,-0.09214923323414968
0.008728160524910353,-0.08543526359960325
0.009063859006637675,-0.08140688181887541
0.009735255970092317,-0.07687495231555656
0.007721065079728388,-0.06764324406805522
0.007721065079728388,-0.05421530479896238
0.006378271152819104,-0.04716563668268864
0.005706874189364461,-0.05673304341191729
0.007385366598001068,-0.07167162584878309
0.004699778744182497,-0.0788891432059205
0.003356984817273213,-0.07335011825741969
0.0030212863355458916,-0.060593575951781484
0.0010070954451819635,-0.049011978332188906
-0.0030212863355458916,-0.03440909437705043
-0.0016784924086366065,-0.011245899137865261
0.0016784924086366065,0.01829556725413901
-0.0030212863355458916,0.03743038071259632
-0.004364080262455177,0.0387731746395056
-0.0016784924086366065,0.03172350652323186
0.0010070954451819635,0.017959868772411687
0.0050354772259098195,0.007217517357137408
0.008392462043183033,0.0052033264667734795
0.007721065079728388,0.01527428091859312
0.010406652933546959,0.02937361715114061
0.010406652933546959,0.035416189822232394
0.007721065079728388,0.033066300450141146
0.008728160524910353,0.024673838406958113
0.004364080262455177,0.016784924086366067
0.0023498893720912484,0.009735255970092317
0.0016784924086366065,0.0011749446860456242
0.0023498893720912484,-0.011581597619592583
0.0023498893720912484,-0.030045014114595252
0.0010070954451819635,-0.050019073777370866
0.006378271152819104,-0.07267872129396505
0.0050354772259098195,-0.09416342412451362
0.0010070954451819635,-0.11447318226901655
0.004364080262455177,-0.12454413672083621
0.006378271152819104,-0.12034790569924468
0.003692683299000534,-0.11128404669260701
0.0016784924086366065,-0.10524147402151522
0.0003356984817273213,-0.10154879072251469
0.0023498893720912484,-0.09282063019760432
0.007049668116273747,-0.0800640878919661
0.008728160524910353,-0.07167162584878309
0.006378271152819104,-0.07234302281223774
0.004364080262455177,-0.06999313344014649
0.007049668116273747,-0.06730754558632791
0.009063859006637675,-0.06965743495841917
0.010070954451819639,-0.0767071030746929
0.009063859006637675,-0.08107118333714809
0.008392462043183033,-0.07267872129396505
0.007385366598001068,-0.05857938506141757
0.0050354772259098195,-0.03910887312123293
0.0010070954451819635,-0.01896696421759365
-0.0030212863355458916,0.005874723430228122
-0.0010070954451819635,0.030716411078049892
-0.0016784924086366065,0.04145876249332417
-0.003692683299000534,0.041123064011596856
-0.004364080262455177,0.029877164873731592
-0.003692683299000534,0.017288471808957043
-0.0016784924086366065,0.009735255970092317
-0.0006713969634546426,0.01292439154650187
-0.0013427939269092851,0.025345235370412753
0.0023498893720912484,0.03860532539864195
0.005706874189364461,0.04313725490196078
0.007721065079728388,0.03407339589532311
0.007721065079728388,0.019974059662775615
0.007049668116273747,0.009567406729228655
0.006378271152819104,0.0035248340581368735
0.0030212863355458916,-0.0055390249485008005
0.007049668116273747,-0.022995345998321506
0.009735255970092317,-0.04682993820096131
0.009063859006637675,-0.06797894254978255
0.009063859006637675,-0.08241397726405737
0.003692683299000534,-0.0971847104600595
0.003692683299000534,-0.11514457923247119
0.003692683299000534,-0.1304188601510643
-0.0016784924086366065,-0.129579613946746
-0.0030212863355458916,-0.11766231784542608
-0.005706874189364461,-0.10255588616769665
-0.007721065079728388,-0.08879224841687647
-0.006042572671091783,-0.07603570611123828
-0.0006713969634546426,-0.064789806973373
0.0023498893720912484,-0.058075837338826576
0.0016784924086366065,-0.05656519417105363
0.0023498893720912484,-0.06025787747005417
0.007721065079728388,-0.06865033951323721
0.0030212863355458916,-0.0780498970016022
0.002014190890363927,-0.08342107270923933
0.006378271152819104,-0.07905699244678416
0.007049668116273747,-0.06999313344014649
0.0050354772259098195,-0.05421530479896238
0.0030212863355458916,-0.030716411078049892
0.003692683299000534,-0.0016784924086366065
0.0050354772259098195,0.025345235370412753
0.004364080262455177,0.043305104142824444
0.0006713969634546426,0.049515526054779886
0.003356984817273213,0.042801556420233464
0.0016784924086366065,0.028702220187685965
-0.0023498893720912484,0.017288471808957043
-0.0030212863355458916,0.017288471808957043
-0.0030212863355458916,0.027695124742504008
-0.0003356984817273213,0.035751888303959714
0.0010070954451819635,0.037094682230869
0.004364080262455177,0.033401998931868467
0.009063859006637675,0.02937361715114061
0.005706874189364461,0.02668802929732204
0.0050354772259098195,0.018631265735866327
0.0050354772259098195,0.001846341649500267
0.005706874189364461,-0.020645456626230255
0.0050354772259098195,-0.044815747310597384
0.0050354772259098195,-0.05992217898832684
0.007721065079728388,-0.06999313344014649
0.009399557488364994,-0.08711375600823987
0.009063859006637675,-0.10977340352483406
0.012420843823910887,-0.13125810635538263
0.007049668116273747,-0.13847562371252
0.003692683299000534,-0.1304188601510643
0.0010070954451819635,-0.11195544365606165
-0.003356984817273213,-0.09433127336537728
-0.0030212863355458916,-0.08409246967269397
-0.0030212863355458916,-0.07737850003814756
0.0010070954451819635,-0.07200732433051041
0.0016784924086366065,-0.06529335469596398
0.0016784924086366065,-0.05874723430228122
0.0050354772259098195,-0.05790798809796292
0.010406652933546959,-0.06630045014114595
0.009063859006637675,-0.0767071030746929
0.007721065079728388,-0.07603570611123828
0.006042572671091783,-0.06562905317769131
0.007721065079728388,-0.053208209353780414
0.008392462043183033,-0.03843747615777828
0.006378271152819104,-0.017624170290684367
0.006378271152819104,0.01326009002822919
0.005706874189364461,0.04078736552986953
0.010406652933546959,0.05085831998168917
0.0050354772259098195,0.04615854123750667
0.0016784924086366065,0.03608758678568704
-0.0003356984817273213,0.02584878309300374
-0.0016784924086366065,0.016617074845502403
0.0016784924086366065,0.012252994583047227
0.0010070954451819635,0.01829556725413901
0.0016784924086366065,0.026352330815594724
0.0023498893720912484,0.0323949034866865
0.0023498893720912484,0.03457694361791409
0.0030212863355458916,0.03407339589532311
0.0023498893720912484,0.030045014114595252
0.002014190890363927,0.014602883955138474
0.0003356984817273213,-0.008224612802319372
-0.0003356984817273213,-0.029709315632867935
0.0023498893720912484,-0.04649423971923399
0.0050354772259098195,-0.06126497291523613
0.006042572671091783,-0.07872129396505684
0.006042572671091783,-0.09953459983215075
0.010406652933546959,-0.12236209658960862
0.009735255970092317,-0.1351186388952468
0.006378271152819104,-0.1347829404135195
0.004364080262455177,-0.1257190814068818
0.007721065079728388,-0.11296253910124363
0.004364080262455177,-0.0971847104600595
0.003692683299000534,-0.0800640878919661
0.005706874189364461,-0.07200732433051041
0.004364080262455177,-0.06965743495841917
0.0006713969634546426,-0.06865033951323721
-0.0003356984817273213,-0.06562905317769131
-0.0006713969634546426,-0.06462195773250935
0.0003356984817273213,-0.07167162584878309
0.0010070954451819635,-0.0797283894102388
0.0050354772259098195,-0.07821774624246586
0.008728160524910353,-0.06730754558632791
0.009063859006637675,-0.04783703364614328
0.011749446860456245,-0.0260166323338674
0.010406652933546959,-0.007553215838864729
0.009063859006637675,0.011581597619592583
0.007385366598001068,0.030045014114595252
0.006378271152819104,0.043808651865415424
0.008392462043183033,0.04582284275577936
0.009735255970092317,0.03843747615777828
0.007049668116273747,0.028702220187685965
0.0016784924086366065,0.01829556725413901
-0.0030212863355458916,0.017288471808957043
-0.0030212863355458916,0.025009536888685433
-0.005706874189364461,0.03457694361791409
-0.009735255970092317,0.040451667048142216
-0.012420843823910887,0.03776607919432364
-0.011078049897001601,0.028030823224231328
-0.007049668116273747,0.012588693064774548
-0.008392462043183033,-0.001846341649500267
-0.003692683299000534,-0.017624170290684367
0.003692683299000534,-0.03508049134050507
0.0050354772259098195,-0.0528725108720531
0.004364080262455177,-0.06865033951323721
0.004364080262455177,-0.08644235904478523
0.008728160524910353,-0.11229114213778896
0.007721065079728388,-0.1359578850995651
0.0050354772259098195,-0.14317540245670252
0.007721065079728388,-0.13310444800488286
0.009063859006637675,-0.11212329289692531
0.009063859006637675,-0.09349202716105898
0.007721065079728388,-0.08073548485542076
0.004364080262455177,-0.07133592736705577
0.0010070954451819635,-0.06361486228732739
-0.004364080262455177,-0.058915083543144876
-0.004364080262455177,-0.05992217898832684
-0.002014190890363927,-0.06663614862287326
0.0023498893720912484,-0.07821774624246586
0.004364080262455177,-0.08963149462119477
0.006378271152819104,-0.08761730373083085
0.007049668116273747,-0.07100022888532845
0.007049668116273747,-0.05085831998168917
0.0050354772259098195,-0.03172350652323186
0.008392462043183033,-0.01560997940032044
0.007721065079728388,0.004531929503318838
0.0010070954451819635,0.023834592202639806
0.0023498893720912484,0.0387731746395056
0.0050354772259098195,0.04783703364614328
0.006378271152819104,0.04632639047837033
0.010406652933546959,0.03474479285877775
0.007721065079728388,0.017959868772411687
0.004364080262455177,0.011245899137865261
0.003692683299000534,0.017120622568093383
0.0010070954451819635,0.028702220187685965
-0.0010070954451819635,0.03810177767605096
-0.0003356984817273213,0.04011596856641489
-0.0016784924086366065,0.035416189822232394
-0.0030212863355458916,0.025345235370412753
-0.004364080262455177,0.012420843823910887
-0.0030212863355458916,-0.005706874189364461
-0.0003356984817273213,-0.02719157701991302
-0.0003356984817273213,-0.04313725490196078
0.0016784924086366065,-0.05589379720759898
0.005706874189364461,-0.07469291218432898
0.004699778744182497,-0.1002059967956054
0.010406652933546959,-0.12202639810788128
0.013092240787365528,-0.13444724193179217
0.009735255970092317,-0.13713282978561073
0.010406652933546959,-0.1351186388952468
0.010070954451819639,-0.12437628747997252
0.006042572671091783,-0.10759136339360646
0.007049668116273747,-0.09013504234378575
0.0050354772259098195,-0.07737850003814756
0.0050354772259098195,-0.06999313344014649
0.0010070954451819635,-0.06210421911955444
0.0010070954451819635,-0.060593575951781484
0.003356984817273213,-0.06865033951323721
-0.0023498893720912484,-0.08543526359960325
-0.0003356984817273213,-0.09449912260624094
-0.0016784924086366065,-0.08778515297169451
-0.004364080262455177,-0.0703288319218738
-0.005706874189364461,-0.048508430609597926
-0.004364080262455177,-0.027695124742504008
-0.0030212863355458916,-0.0055390249485008005
-0.0003356984817273213,0.018631265735866327
0.006378271152819104,0.04061951628900587
0.009063859006637675,0.0528725108720531
0.0050354772259098195,0.051529716945143814
0.003692683299000534,0.042801556420233464
0.0016784924086366065,0.02937361715114061
0.0050354772259098195,0.018631265735866327
0.008392462043183033,0.01829556725413901
0.007721065079728388,0.027862973983367664
0.006378271152819104,0.04011596856641489
0.004699778744182497,0.04414435034714275
0.003692683299000534,0.03944457160296025
0.0023498893720912484,0.033066300450141146
0.006378271152819104,0.026352330815594724
0.003692683299000534,0.014267185473411156
0.0016784924086366065,-0.0055390249485008005
0.003692683299000534,-0.03256275272755016
0.0016784924086366065,-0.05857938506141757
-0.0016784924086366065,-0.08073548485542076
-0.0003356984817273213,-0.09500267032883192
-0.0006713969634546426,-0.1096055542839704
0.0023498893720912484,-0.12639047837033646
0.005706874189364461,-0.13579003585870145
0.009063859006637675,-0.13243305104142825
0.012756542305638208,-0.12034790569924468
0.007721065079728388,-0.10893415732051576
0.006713969634546426,-0.09617761501487754
0.010406652933546959,-0.08073548485542076
0.010406652933546959,-0.06730754558632791
0.009735255970092317,-0.061936369878690785
0.007721065079728388,-0.06462195773250935
0.009735255970092317,-0.07100022888532845
0.0050354772259098195,-0.08207827878233005
0.0030212863355458916,-0.09282063019760432
0.003356984817273213,-0.0955062180514229
-0.003356984817273213,-0.0861066605630579
-0.0030212863355458916,-0.06428625925078202
-0.0016784924086366065,-0.041962310215915156
-0.0030212863355458916,-0.021652552071412222
-0.0030212863355458916,0.0010070954451819635
-0.0030212863355458916,0.028366521705958644
0.0006713969634546426,0.052201113908598454
0.0030212863355458916,0.060761425192645144
0.007721065079728388,0.05589379720759898
0.009063859006637675,0.04615854123750667
0.009735255970092317,0.03910887312123293
0.007721065079728388,0.0387731746395056
0.009063859006637675,0.04414435034714275
0.008728160524910353,0.04615854123750667
0.006378271152819104,0.04666208896009766
0.006378271152819104,0.04615854123750667
0.005706874189364461,0.04414435034714275
0.007385366598001068,0.03810177767605096
0.0050354772259098195,0.02652018005645838
0.002014190890363927,0.009231708247501335
-0.002014190890363927,-0.019638361181048294
-0.004364080262455177,-0.048508430609597926
-0.0023498893720912484,-0.06999313344014649
-0.005706874189364461,-0.08509956511787593
-0.005706874189364461,-0.10087739375906005
-0.003692683299000534,-0.11967650873579004
0.0016784924086366065,-0.13109025711451894
0.006713969634546426,-0.1351186388952468
0.008392462043183033,-0.13109025711451894
0.005706874189364461,-0.12236209658960862
0.0050354772259098195,-0.10926985580224306
0.003692683299000534,-0.09365987640192262
-0.0016784924086366065,-0.07771419851987486
-0.0030212863355458916,-0.06630045014114595
0.0023498893720912484,-0.06294346532387274
0.007721065079728388,-0.06529335469596398
0.010406652933546959,-0.07536430914778362
0.009063859006637675,-0.08963149462119477
0.006378271152819104,-0.0955062180514229
0.005706874189364461,-0.08879224841687647
0.007049668116273747,-0.07335011825741969
0.0016784924086366065,-0.054551003280689715
-0.0016784924086366065,-0.0323949034866865
-0.0003356984817273213,-0.004196231021591517
-0.0030212863355458916,0.025009536888685433
-0.009735255970092317,0.041962310215915156
-0.009735255970092317,0.04682993820096131
-0.004364080262455177,0.04414435034714275
0.0023498893720912484,0.0387731746395056
0.0050354772259098195,0.02937361715114061
0.006378271152819104,0.021820401312275882
0.011749446860456245,0.02333104448004883
0.007721065079728388,0.030380712596322572
0.007049668116273747,0.035248340581368734
0.0050354772259098195,0.033401998931868467
0.009063859006637675,0.033401998931868467
0.010406652933546959,0.03558403906309605
0.006378271152819104,0.030716411078049892
0.008392462043183033,0.01359578850995651
0.006378271152819104,-0.01560997940032044
0.0023498893720912484,-0.04582284275577936
0.0003356984817273213,-0.06596475165941862
-0.0003356984817273213,-0.07603570611123828
-0.0003356984817273213,-0.08795300221255817
-0.004364080262455177,-0.10893415732051576
-0.005706874189364461,-0.13008316166933698
-0.0030212863355458916,-0.14048981460288396
0.0006713969634546426,-0.14082551308461125
-0.0016784924086366065,-0.13377584496833753
-0.0003356984817273213,-0.12169069962615398
-0.0003356984817273213,-0.10490577553978789
0.003692683299000534,-0.08778515297169451
0.0050354772259098195,-0.07570000762951096
0.006042572671091783,-0.06999313344014649
0.009735255970092317,-0.06663614862287326
0.012420843823910887,-0.06697184710460058
0.01376363775082017,-0.07939269092851148
0.009735255970092317,-0.09919890135042343
0.007049668116273747,-0.10893415732051576
0.008392462043183033,-0.09752040894178682
0.007049668116273747,-0.06932173647669183
0.004699778744182497,-0.03944457160296025
0.006378271152819104,-0.01292439154650187
0.007049668116273747,0.01292439154650187
0.0010070954451819635,0.03474479285877775
-0.0030212863355458916,0.048844129091325246
-0.0010070954451819635,0.05253681239032577
-0.0030212863355458916,0.05253681239032577
-0.0016784924086366065,0.050019073777370866
-0.0030212863355458916,0.04213015945677882
0.0010070954451819635,0.03608758678568704
0.0050354772259098195,0.03508049134050507
0.0050354772259098195,0.0387731746395056
0.007049668116273747,0.04078736552986953
0.004364080262455177,0.042801556420233464
0.003692683299000534,0.04548714427405204
0.0023498893720912484,0.043808651865415424
0.003692683299000534,0.035751888303959714
0.007721065079728388,0.01594567788204776
0.010406652933546959,-0.014267185473411156
0.007721065079728388,-0.04716563668268864
0.007049668116273747,-0.06965743495841917
0.008728160524910353,-0.08207827878233005
0.004364080262455177,-0.0971847104600595
0.0023498893720912484,-0.11900511177233539
-0.0003356984817273213,-0.1364614328221561
-0.0016784924086366065,-0.13864347295338367
-0.0010070954451819635,-0.1284046692607004
-0.0006713969634546426,-0.11631952391851681
-0.002014190890363927,-0.11027695124742502
-0.0010070954451819635,-0.09953459983215075
0.0003356984817273213,-0.0844281681544213
0.006378271152819104,-0.06747539482719157
0.009735255970092317,-0.05824368657969024
0.009063859006637675,-0.056900892652780956
0.010070954451819639,-0.064789806973373
0.007721065079728388,-0.08308537422751203
0.007049668116273747,-0.09684901197833219
0.004364080262455177,-0.09483482108796826
0.006713969634546426,-0.0767071030746929
0.007049668116273747,-0.049851224536507206
0.006378271152819104,-0.0260166323338674
0.004028381780727854,-0.004196231021591517
-0.0030212863355458916,0.016617074845502403
-0.0030212863355458916,0.03608758678568704
-0.0016784924086366065,0.043808651865415424
0.0003356984817273213,0.043808651865415424
0.0010070954451819635,0.04213015945677882
-0.0023498893720912484,0.036423285267414354
-0.0023498893720912484,0.030212863355458915
0.0010070954451819635,0.02853437094682231
-0.002014190890363927,0.03608758678568704
-0.005706874189364461,0.043808651865415424
-0.0016784924086366065,0.04750133516441596
0.0050354772259098195,0.048676279850461586
0.0003356984817273213,0.04666208896009766
0.0016784924086366065,0.03608758678568704
0.006378271152819104,0.01896696421759365
0.010406652933546959,-0.0005035477225909818
0.010406652933546959,-0.02366674296177615
0.010406652933546959,-0.049851224536507206
0.01376363775082017,-0.07771419851987486
0.013092240787365528,-0.10423437857633323
0.009063859006637675,-0.12907606622415504
0.0050354772259098195,-0.1411612115663386
0.003692683299000534,-0.14048981460288396
0.0050354772259098195,-0.1364614328221561
0.0010070954451819635,-0.12941176470588234
0.0006713969634546426,-0.12303349355306323
0.0050354772259098195,-0.11363393606469825
0.0010070954451819635,-0.1002059967956054
-0.0003356984817273213,-0.08274967574578469
-0.0030212863355458916,-0.06831464103150987
-0.0023498893720912484,-0.06092927443350881
0.003692683299000534,-0.062272068360418105
0.0023498893720912484,-0.07939269092851148
0.006378271152819104,-0.09785610742351414
0.0050354772259098195,-0.10121309224078735
0.004364080262455177,-0.08543526359960325
0.004699778744182497,-0.060761425192645144
0.0010070954451819635,-0.035416189822232394
0.003692683299000534,-0.012588693064774548
0.007385366598001068,0.0055390249485008005
0.0050354772259098195,0.022995345998321506
0.007721065079728388,0.03743038071259632
0.003692683299000534,0.04783703364614328
-0.0030212863355458916,0.0528725108720531
-0.0016784924086366065,0.049515526054779886
-0.0023498893720912484,0.0387731746395056
-0.006042572671091783,0.03054856183718624
-0.007049668116273747,0.03457694361791409
-0.004364080262455177,0.04649423971923399
0.0003356984817273213,0.05354390783550774
0.0006713969634546426,0.0481727321278706
0.0010070954451819635,0.04129091325246051
0.007049668116273747,0.035416189822232394
0.011078049897001601,0.027695124742504008
0.009735255970092317,0.01292439154650187
0.009063859006637675,-0.011245899137865261
0.011749446860456245,-0.04078736552986953
0.011749446860456245,-0.06831464103150987
0.010406652933546959,-0.08812085145342184
0.012420843823910887,-0.11111619745174332
0.011749446860456245,-0.1347829404135195
0.010406652933546959,-0.14586099031052108
0.012420843823910887,-0.14317540245670252
0.013092240787365528,-0.13209735255970093
0.007721065079728388,-0.12454413672083621
0.005706874189364461,-0.11430533302815289
0.0023498893720912484,-0.09953459983215075
-0.006042572671091783,-0.08308537422751203
-0.009735255970092317,-0.07016098268101013
-0.011078049897001601,-0.061936369878690785
-0.011078049897001601,-0.057236591134508276
-0.009735255970092317,-0.0639505607690547
-0.003692683299000534,-0.08207827878233005
-0.0003356984817273213,-0.0971847104600595
0.003692683299000534,-0.09365987640192262
0.007721065079728388,-0.07267872129396505
0.007721065079728388,-0.05035477225909819
0.007721065079728388,-0.03138780804150454
0.010406652933546959,-0.011413748378728923
0.008392462043183033,0.014938582436865796
0.004364080262455177,0.041794460975051496
0.005706874189364461,0.05673304341191729
0.004699778744182497,0.048844129091325246
0.003692683299000534,0.035919737544823374
0.002014190890363927,0.027862973983367664
0.0023498893720912484,0.028030823224231328
0.0010070954451819635,0.03474479285877775
-0.0030212863355458916,0.04716563668268864
-0.0030212863355458916,0.05740444037537193
0.0010070954451819635,0.05589379720759898
-0.0003356984817273213,0.048844129091325246
0.0010070954451819635,0.04011596856641489
-0.002014190890363927,0.033401998931868467
0.0003356984817273213,0.025009536888685433
0.0010070954451819635,0.006546120393682764
0.0030212863355458916,-0.021652552071412222
0.009735255970092317,-0.05522240024414436
0.007721065079728388,-0.08107118333714809
0.007721065079728388,-0.09987029831387809
0.013092240787365528,-0.11967650873579004
0.013092240787365528,-0.13713282978561073
0.011749446860456245,-0.14653238727397572
0.012420843823910887,-0.14250400549324788
0.011749446860456245,-0.13192950331883724
0.010406652933546959,-0.12101930266269931
0.006378271152819104,-0.1096055542839704
0.0050354772259098195,-0.09181353475242236
0.005706874189364461,-0.07083237964446479
0.0016784924086366065,-0.05656519417105363
-0.0006713969634546426,-0.050186923018234526
-0.004364080262455177,-0.048844129091325246
-0.0030212863355458916,-0.057572289616235596
-0.003356984817273213,-0.07553215838864728
-0.0030212863355458916,-0.09013504234378575
-0.003692683299000534,-0.08879224841687647
-0.0010070954451819635,-0.07200732433051041
-0.0010070954451819635,-0.048508430609597926
-0.0003356984817273213,-0.01896696421759365
0.0023498893720912484,0.014267185473411156
0.0016784924086366065,0.04145876249332417
0.0023498893720912484,0.057572289616235596
0.005706874189364461,0.05673304341191729
0.004364080262455177,0.04582284275577936
0.0050354772259098195,0.0323949034866865
0.003692683299000534,0.025009536888685433
0.003692683299000534,0.02652018005645838
-0.0006713969634546426,0.037094682230869
-0.0006713969634546426,0.050019073777370866
0.0030212863355458916,0.051529716945143814
-0.0006713969634546426,0.044647898069733724
-0.0030212863355458916,0.03743038071259632
-0.0030212863355458916,0.03205920500495917
-0.0003356984817273213,0.02668802929732204
0.004364080262455177,0.013092240787365528
0.004364080262455177,-0.009231708247501335
-0.0003356984817273213,-0.04145876249332417
0.004364080262455177,-0.07335011825741969
0.012085145342183566,-0.09752040894178682
0.010406652933546959,-0.11598382543678949
0.010406652933546959,-0.13075455863279162
0.010406652933546959,-0.14048981460288396
0.009063859006637675,-0.14468604562447548
0.008056763561455708,-0.13998626688029298
0.0050354772259098195,-0.12857251850156404
0.003692683299000534,-0.11380178530556191
0.004364080262455177,-0.10037384603646905
0.007049668116273747,-0.09282063019760432
0.004364080262455177,-0.08577096208133059
-0.0016784924086366065,-0.07570000762951096
0.0010070954451819635,-0.06025787747005417
0.0010070954451819635,-0.05555809872587166
-0.0003356984817273213,-0.0703288319218738
-0.0030212863355458916,-0.09013504234378575
-0.0050354772259098195,-0.09970244907301441
-0.0010070954451819635,-0.0908064393072404
-0.0010070954451819635,-0.07049668116273747
-0.003692683299000534,-0.04145876249332417
0.0010070954451819635,-0.006881818875410085
0.007049668116273747,0.025345235370412753
0.006378271152819104,0.04666208896009766
0.009063859006637675,0.049515526054779886
0.006378271152819104,0.04414435034714275
0.007721065079728388,0.036423285267414354
0.010406652933546959,0.028030823224231328
0.007721065079728388,0.02400244144350347
0.007721065079728388,0.028030823224231328
0.007721065079728388,0.03826962691691462
0.007049668116273747,0.042801556420233464
0.007049668116273747,0.04213015945677882
0.007049668116273747,0.03776607919432364
0.004699778744182497,0.03256275272755016
0.0023498893720912484,0.028030823224231328
0.0023498893720912484,0.021988250553139542
0.003692683299000534,0.004531929503318838
0.0023498893720912484,-0.024338139925230793
0.0023498893720912484,-0.051865415426871134
0.0023498893720912484,-0.07335011825741969
0.005706874189364461,-0.09349202716105898
0.009735255970092317,-0.11967650873579004
0.012420843823910887,-0.14015411612115664
0.012420843823910887,-0.14737163347829402
0.010406652933546959,-0.14082551308461125
0.006378271152819104,-0.12806897077897306
0.003692683299000534,-0.11598382543678949
0.006378271152819104,-0.10356298161287861
0.0030212863355458916,-0.09282063019760432
-0.0003356984817273213,-0.08207827878233005
0.0010070954451819635,-0.07301441977569237
0.003692683299000534,-0.06462195773250935
0.0023498893720912484,-0.05874723430228122
-0.003692683299000534,-0.0639505607690547
-0.007049668116273747,-0.08039978637369342
-0.005706874189364461,-0.09617761501487754
-0.006378271152819104,-0.09231708247501334
-0.005706874189364461,-0.07100022888532845
-0.0050354772259098195,-0.042465857938506144
-0.0016784924086366065,-0.014938582436865796
-0.0003356984817273213,0.012588693064774548
-0.0003356984817273213,0.03944457160296025
-0.0003356984817273213,0.05421530479896238
0.0050354772259098195,0.057236591134508276
0.003692683299000534,0.05304036011291676
0.0050354772259098195,0.04682993820096131
0.009063859006637675,0.042801556420233464
0.007049668116273747,0.04061951628900587
0.007721065079728388,0.043305104142824444
0.006378271152819104,0.050186923018234526
0.010406652933546959,0.05589379720759898
0.010406652933546959,0.05488670176241703
0.010406652933546959,0.04917982757305257
0.007049668116273747,0.0387731746395056
-0.0030212863355458916,0.024673838406958113
0.0003356984817273213,0.006378271152819104
0.002014190890363927,-0.01292439154650187
-0.0010070954451819635,-0.035751888303959714
-0.003692683299000534,-0.061936369878690785
-0.007385366598001068,-0.08342107270923933
-0.008728160524910353,-0.10557717250324253
-0.003692683299000534,-0.13243305104142825
0.003692683299000534,-0.1525749599450675
0.006378271152819104,-0.1525749599450675
0.0050354772259098195,-0.13780422674906534
0.0050354772259098195,-0.12303349355306323
0.006378271152819104,-0.1096055542839704
0.010406652933546959,-0.10154879072251469
0.007721065079728388,-0.09567406729228656
0.007385366598001068,-0.08577096208133059
0.008728160524910353,-0.07318226901655604
0.009063859006637675,-0.06327916380560006
0.007721065079728388,-0.06596475165941862
0.004364080262455177,-0.08107118333714809
-0.0016784924086366065,-0.0955062180514229
-0.002014190890363927,-0.0988632028686961
0.0016784924086366065,-0.08879224841687647
-0.0003356984817273213,-0.06730754558632791
0.0006713969634546426,-0.03910887312123293
0.0003356984817273213,-0.009567406729228655
-0.003692683299000534,0.019638361181048294
-0.0030212863355458916,0.042465857938506144
-0.0003356984817273213,0.05555809872587166
0.002014190890363927,0.059250782024872196
0.0050354772259098195,0.05253681239032577
0.008728160524910353,0.03608758678568704
0.009063859006637675,0.023163195239185166
0.008392462043183033,0.020645456626230255
0.006378271152819104,0.03407339589532311
0.006378271152819104,0.04917982757305257
0.009735255970092317,0.05421530479896238
0.007049668116273747,0.05085831998168917
0.003692683299000534,0.043305104142824444
0.006378271152819104,0.03172350652323186
0.011078049897001601,0.01527428091859312
0.005706874189364461,-0.0005035477225909818
0.0016784924086366065,-0.019638361181048294
0.002014190890363927,-0.04414435034714275
-0.004364080262455177,-0.06697184710460058
-0.005706874189364461,-0.09181353475242236
-0.004364080262455177,-0.11799801632715344
-0.004364080262455177,-0.13914702067597465
-0.003692683299000534,-0.14518959334706644
0.0003356984817273213,-0.13847562371252
0.0023498893720912484,-0.1270618753337911
0.0023498893720912484,-0.11464103150988021
0.003692683299000534,-0.10490577553978789
0.009063859006637675,-0.0971847104600595
0.006378271152819104,-0.08812085145342184
0.004028381780727854,-0.07267872129396505
0.006378271152819104,-0.05471885252155337
0.006378271152819104,-0.04716563668268864
0.006378271152819104,-0.057236591134508276
0.007721065079728388,-0.0780498970016022
0.008392462043183033,-0.09282063019760432
0.006378271152819104,-0.08778515297169451
0.0010070954451819635,-0.06831464103150987
0.0016784924086366065,-0.050522621499961846
0.003692683299000534,-0.03105210955977722
0.0010070954451819635,-0.0035248340581368735
0.0003356984817273213,0.030045014114595252
-0.0003356984817273213,0.05421530479896238
0.0003356984817273213,0.06109712367437248
-0.0030212863355458916,0.05622949568932631
0.0030212863355458916,0.044815747310597384
0.003692683299000534,0.032730601968413826
0.006042572671091783,0.024505989166094453
0.0050354772259098195,0.029709315632867935
0.0050354772259098195,0.042801556420233464
0.006378271152819104,0.051865415426871134
0.003356984817273213,0.050522621499961846
0.0030212863355458916,0.03994811932555123
0.006378271152819104,0.030380712596322572
0.006378271152819104,0.019302662699320974
0.007049668116273747,0.007217517357137408
0.007385366598001068,-0.008896009765774012
0.007049668116273747,-0.03105210955977722
0.006378271152819104,-0.054551003280689715
0.0030212863355458916,-0.0800640878919661
0.0016784924086366065,-0.10759136339360646
-0.0006713969634546426,-0.13579003585870145
-0.0023498893720912484,-0.15223926146334021
-0.004699778744182497,-0.147875181200885
-0.003692683299000534,-0.13344014648661018
-0.0050354772259098195,-0.11967650873579004
-0.003692683299000534,-0.10826276035706112
0.0023498893720912484,-0.09449912260624094
0.006378271152819104,-0.08140688181887541
0.007721065079728388,-0.07167162584878309
0.009063859006637675,-0.07200732433051041
0.009063859006637675,-0.07133592736705577
0.009735255970092317,-0.07200732433051041
0.007721065079728388,-0.08039978637369342
0.004699778744182497,-0.09181353475242236
0.004364080262455177,-0.09517051956969558
0.002014190890363927,-0.08140688181887541
0.0016784924086366065,-0.06327916380560006
0.0003356984817273213,-0.04582284275577936
0.005706874189364461,-0.024673838406958113
0.005706874189364461,0.007217517357137408
0.002014190890363927,0.04078736552986953
-0.0016784924086366065,0.05992217898832684
-0.0006713969634546426,0.06160067139696345
0.0010070954451819635,0.048844129091325246
0.0003356984817273213,0.032730601968413826
-0.005706874189364461,0.020981155107957578
-0.007049668116273747,0.02333104448004883
-0.0016784924086366065,0.0387731746395056
0.0010070954451819635,0.05085831998168917
0.0050354772259098195,0.05488670176241703
0.008392462043183033,0.04917982757305257
0.007049668116273747,0.0379339284351873
0.0050354772259098195,0.024673838406958113
0.0050354772259098195,0.013931486991683832
0.010406652933546959,0.003860532539864194
0.011749446860456245,-0.01359578850995651
0.014435034714274816,-0.03776607919432364
0.012420843823910887,-0.06495765621423667
0.007385366598001068,-0.09147783627069504
0.003356984817273213,-0.11799801632715344
0.0010070954451819635,-0.1411612115663386
0.0010070954451819635,-0.1552605477988861
0.0016784924086366065,-0.15458915083543145
-0.0010070954451819635,-0.14317540245670252
-0.0016784924086366065,-0.1240405889982452
-0.005706874189364461,-0.1032272831311513
-0.0016784924086366065,-0.08677805752651253
0.0050354772259098195,-0.07435721370260165
0.003692683299000534,-0.06764324406805522
0.006378271152819104,-0.062272068360418105
0.007721065079728388,-0.06160067139696345
0.006378271152819104,-0.06630045014114595
0.009735255970092317,-0.07821774624246586
0.006042572671091783,-0.0908064393072404
0.0050354772259098195,-0.09282063019760432
0.007721065079728388,-0.08409246967269397
0.006378271152819104,-0.06327916380560006
0.006378271152819104,-0.036423285267414354
0.006378271152819104,-0.003860532539864194
0.0023498893720912484,0.02937361715114061
-0.0003356984817273213,0.053208209353780414
-0.0003356984817273213,0.06495765621423667
0.0010070954451819635,0.062272068360418105
-0.004364080262455177,0.04800488288700694
-0.011078049897001601,0.030716411078049892
-0.012420843823910887,0.02366674296177615
-0.007049668116273747,0.03474479285877775
-0.005706874189364461,0.05085831998168917
-0.0003356984817273213,0.058915083543144876
0.002014190890363927,0.05740444037537193
0.003356984817273213,0.051529716945143814
0.003692683299000534,0.043472953383688104
0.006378271152819104,0.03205920500495917
0.006378271152819104,0.011917296101319903
0.009063859006637675,-0.011917296101319903
0.010406652933546959,-0.036423285267414354
0.013092240787365528,-0.05555809872587166
0.011078049897001601,-0.07133592736705577
0.010406652933546959,-0.09030289158464942
0.012420843823910887,-0.11631952391851681
0.009063859006637675,-0.14183260852979326
0.007721065079728388,-0.14955367360952163
0.003692683299000534,-0.14250400549324788
-0.0003356984817273213,-0.12907606622415504
-0.0010070954451819635,-0.11296253910124363
-0.005706874189364461,-0.09819180590524147
-0.006378271152819104,-0.08677805752651253
-0.0030212863355458916,-0.08039978637369342
-0.0006713969634546426,-0.07603570611123828
-0.0016784924086366065,-0.07167162584878309
-0.002014190890363927,-0.06898603799496453
0.006378271152819104,-0.07570000762951096
0.010406652933546959,-0.08879224841687647
0.010070954451819639,-0.09651331349660487
0.011078049897001601,-0.09416342412451362
0.011413748378728923,-0.07737850003814756
0.011749446860456245,-0.05270466163118945
0.009063859006637675,-0.02333104448004883
0.009735255970092317,0.009903105210955977
0.005706874189364461,0.04011596856641489
0.0050354772259098195,0.05622949568932631
0.006378271152819104,0.05857938506141757
0.0010070954451819635,0.05337605859464408
0.0010070954451819635,0.04548714427405204
-0.0003356984817273213,0.03608758678568704
-0.0010070954451819635,0.027359426260776684
-0.0050354772259098195,0.02853437094682231
-0.006378271152819104,0.035751888303959714
-0.0030212863355458916,0.043976501106279084
-0.0030212863355458916,0.049515526054779886
-0.004364080262455177,0.048844129091325246
0.0023498893720912484,0.040451667048142216
0.004364080262455177,0.020981155107957578
0.0016784924086366065,-0.0035248340581368735
0.0050354772259098195,-0.02937361715114061
0.007721065079728388,-0.048508430609597926
0.0050354772259098195,-0.06025787747005417
0.006378271152819104,-0.07637140459296558
0.007721065079728388,-0.10087739375906005
0.009735255970092317,-0.12974746318760969
0.010406652933546959,-0.14670023651483938
0.007721065079728388,-0.1468680857557031
0.004364080262455177,-0.13545433737697413
0.0023498893720912484,-0.11699092088197145
-0.0003356984817273213,-0.09987029831387809
-0.0030212863355458916,-0.0861066605630579
-0.0030212863355458916,-0.07939269092851148
-0.0030212863355458916,-0.07737850003814756
-0.0016784924086366065,-0.07301441977569237
0.003692683299000534,-0.06596475165941862
0.0016784924086366065,-0.06596475165941862
0.0003356984817273213,-0.07872129396505684
0.007385366598001068,-0.09349202716105898
0.008728160524910353,-0.09684901197833219
0.006378271152819104,-0.08375677119096665
0.009735255970092317,-0.05857938506141757
0.008728160524910353,-0.03121995880064088
0.009735255970092317,-0.006881818875410085
0.008392462043183033,0.019638361181048294
0.009063859006637675,0.043472953383688104
0.007721065079728388,0.06025787747005417
0.004364080262455177,0.06361486228732739
0.004699778744182497,0.053208209353780414
0.0023498893720912484,0.04078736552986953
-0.0003356984817273213,0.030380712596322572
-0.0006713969634546426,0.028702220187685965
0.0003356984817273213,0.03373769741359579
-0.0016784924086366065,0.04145876249332417
-0.004364080262455177,0.04800488288700694
0.0010070954451819635,0.049515526054779886
0.003356984817273213,0.04582284275577936
-0.0003356984817273213,0.03138780804150454
-0.0030212863355458916,0.010910200656137941
-0.0016784924086366065,-0.010238803692683297
0.002014190890363927,-0.0323949034866865
0.004364080262455177,-0.05253681239032577
0.0030212863355458916,-0.07049668116273747
0.0030212863355458916,-0.09298847943846798
0.0023498893720912484,-0.12252994583047226
0.0050354772259098195,-0.1468680857557031
-0.0003356984817273213,-0.1555962462806134
0.0003356984817273213,-0.1492179751277943
0.006713969634546426,-0.12974746318760969
0.007049668116273747,-0.10759136339360646
0.004364080262455177,-0.092484931715877
0.0016784924086366065,-0.08342107270923933
0.0030212863355458916,-0.07402151522087433
-0.0003356984817273213,-0.064789806973373
-0.0006713969634546426,-0.05958648050659952
0.0006713969634546426,-0.06596475165941862
-0.0003356984817273213,-0.08073548485542076
-0.0010070954451819635,-0.09617761501487754
-0.0016784924086366065,-0.0988632028686961
0.0023498893720912484,-0.08476386663614863
0.0030212863355458916,-0.06327916380560006
0.0050354772259098195,-0.040451667048142216
0.007721065079728388,-0.020309758144502935
0.010406652933546959,0.003692683299000534
0.010406652933546959,0.029037918669413288
0.009063859006637675,0.05085831998168917
0.006378271152819104,0.062272068360418105
0.009063859006637675,0.06025787747005417
0.007721065079728388,0.04750133516441596
0.010406652933546959,0.03189135576409552
0.007721065079728388,0.025680933852140077
0.004364080262455177,0.03373769741359579
0.006042572671091783,0.04783703364614328
0.003692683299000534,0.05589379720759898
0.0030212863355458916,0.054551003280689715
0.0016784924086366065,0.04917982757305257
0.0050354772259098195,0.03743038071259632
0.004699778744182497,0.017959868772411687
0.005706874189364461,-0.006546120393682764
0.006378271152819104,-0.030212863355458915
0.0030212863355458916,-0.04917982757305257
0.0016784924086366065,-0.06495765621423667
0.004364080262455177,-0.08207827878233005
0.003356984817273213,-0.10356298161287861
-0.0003356984817273213,-0.1279011215381094
-0.0016784924086366065,-0.147875181200885
0.0023498893720912484,-0.15156786449988555
0.009063859006637675,-0.14384679942015716
0.007721065079728388,-0.12773327229724574
0.008392462043183033,-0.11094834821087966
0.014099336232547494,-0.09416342412451362
0.011078049897001601,-0.08039978637369342
0.005706874189364461,-0.0703288319218738
0.0016784924086366065,-0.061936369878690785
-0.0030212863355458916,-0.05992217898832684
-0.0050354772259098195,-0.06999313344014649
-0.004364080262455177,-0.09013504234378575
-0.006378271152819104,-0.10154879072251469
-0.008728160524910353,-0.09181353475242236
-0.008392462043183033,-0.07083237964446479
-0.004364080262455177,-0.050522621499961846
-0.0016784924086366065,-0.03390554665445944
-0.0016784924086366065,-0.010574502174410621
-0.0003356984817273213,0.020981155107957578
0.003356984817273213,0.04800488288700694
0.004364080262455177,0.060593575951781484
0.0050354772259098195,0.060090028229190504
0.0050354772259098195,0.052201113908598454
0.009735255970092317,0.03994811932555123
0.011078049897001601,0.02668802929732204
0.010406652933546959,0.02333104448004883
0.007721065079728388,0.03608758678568704
0.006378271152819104,0.054551003280689715
0.0023498893720912484,0.06294346532387274
-0.0030212863355458916,0.05824368657969024
-0.0003356984817273213,0.043976501106279084
-0.0003356984817273213,0.02937361715114061
-0.0003356984817273213,0.018631265735866327
-0.002014190890363927,0.0011749446860456242
-0.0023498893720912484,-0.030045014114595252
0.0010070954451819635,-0.05857938506141757
0.0050354772259098195,-0.07821774624246586
0.0023498893720912484,-0.09349202716105898
0.0050354772259098195,-0.11313038834210726
0.006378271152819104,-0.1364614328221561
0.009063859006637675,-0.15056076905470359
0.011749446860456245,-0.1512321660181582
0.009063859006637675,-0.13881132219424736
0.006378271152819104,-0.12303349355306323
0.006378271152819104,-0.10423437857633323
0.0050354772259098195,-0.08493171587701229
0.0023498893720912484,-0.07335011825741969
0.006378271152819104,-0.06797894254978255
0.007049668116273747,-0.07066453040360113
0.006378271152819104,-0.07637140459296558
0.003692683299000534,-0.08677805752651253
0.0023498893720912484,-0.09819180590524147
0.0003356984817273213,-0.09852750438696878
-0.0006713969634546426,-0.0861066605630579
-0.004699778744182497,-0.06462195773250935
-0.007721065079728388,-0.04548714427405204
-0.008392462043183033,-0.02853437094682231
-0.006378271152819104,-0.003860532539864194
-0.0003356984817273213,0.02719157701991302
0.0016784924086366065,0.05270466163118945
0.0003356984817273213,0.06210421911955444
0.004699778744182497,0.05589379720759898
0.007721065079728388,0.041794460975051496
0.010406652933546959,0.02937361715114061
0.008392462043183033,0.027359426260776684
0.007721065079728388,0.032730601968413826
0.008392462043183033,0.035416189822232394
0.0050354772259098195,0.03810177767605096
0.0050354772259098195,0.03743038071259632
0.0050354772259098195,0.03508049134050507
0.0030212863355458916,0.030380712596322572
0.0016784924086366065,0.02265964751659419
0.0010070954451819635,0.011917296101319903
0.0023498893720912484,-0.014267185473411156
-0.0003356984817273213,-0.0473334859235523
-0.0010070954451819635,-0.07435721370260165
-0.0010070954451819635,-0.09114213778896772
-0.0030212863355458916,-0.10373083085374227
-0.0003356984817273213,-0.11900511177233539
0.0010070954451819635,-0.13310444800488286
-0.0016784924086366065,-0.1411612115663386
-0.0016784924086366065,-0.13713282978561073
0.0023498893720912484,-0.1257190814068818
0.009063859006637675,-0.1079270618753338
0.008728160524910353,-0.08963149462119477
0.006378271152819104,-0.07536430914778362
0.0016784924086366065,-0.06747539482719157
0.0023498893720912484,-0.06596475165941862
0.007721065079728388,-0.06327916380560006
0.007721065079728388,-0.06462195773250935
0.008392462043183033,-0.07536430914778362
0.008392462043183033,-0.08677805752651253
0.0050354772259098195,-0.08879224841687647
0.0023498893720912484,-0.07536430914778362
0.0016784924086366065,-0.051529716945143814
0.0006713969634546426,-0.02652018005645838
0.002014190890363927,-0.0005035477225909818
-0.0016784924086366065,0.02584878309300374
-0.003692683299000534,0.04011596856641489
-0.0030212863355458916,0.04615854123750667
-0.0003356984817273213,0.048844129091325246
-0.0016784924086366065,0.0473334859235523
0.0023498893720912484,0.04213015945677882
0.007049668116273747,0.03440909437705043
0.007721065079728388,0.032730601968413826
0.008728160524910353,0.037262531471732654
0.011078049897001601,0.04414435034714275
0.008392462043183033,0.044815747310597384
0.011749446860456245,0.043305104142824444
0.014435034714274816,0.04213015945677882
0.01376363775082017,0.03659113450827802
0.009063859006637675,0.02265964751659419
0.0050354772259098195,-0.0035248340581368735
0.0016784924086366065,-0.03474479285877775
-0.0003356984817273213,-0.06160067139696345
-0.0003356984817273213,-0.0800640878919661
0.0010070954451819635,-0.0963454642557412
0.0016784924086366065,-0.11430533302815289
-0.0016784924086366065,-0.13192950331883724
-0.0030212863355458916,-0.14518959334706644
-0.0016784924086366065,-0.1453574425879301
-0.004699778744182497,-0.1347829404135195
-0.003692683299000534,-0.11967650873579004
-0.005706874189364461,-0.09987029831387809
-0.0030212863355458916,-0.08157473105973906
0.007049668116273747,-0.07066453040360113
0.009063859006637675,-0.06529335469596398
0.012756542305638208,-0.06260776684214542
0.013092240787365528,-0.061936369878690785
0.011749446860456245,-0.06999313344014649
0.011078049897001601,-0.09013504234378575
0.009063859006637675,-0.10289158464942397
0.006378271152819104,-0.09617761501487754
0.0023498893720912484,-0.07335011825741969
-0.004364080262455177,-0.044480048828870064
-0.004364080262455177,-0.016449225604638743
-0.003356984817273213,0.012420843823910887
-0.003692683299000534,0.035919737544823374
-0.0030212863355458916,0.050522621499961846
-0.004364080262455177,0.054047455558098714
-0.006378271152819104,0.05085831998168917
-0.005706874189364461,0.04750133516441596
-0.0023498893720912484,0.041962310215915156
-0.0016784924086366065,0.033066300450141146
0.0010070954451819635,0.030045014114595252
0.0050354772259098195,0.035416189822232394
0.0023498893720912484,0.04145876249332417
0.007721065079728388,0.04750133516441596
0.009063859006637675,0.05085831998168917
0.007721065079728388,0.04682993820096131
0.013092240787365528,0.033234149691004806
0.015106431677729458,0.008896009765774012
0.0157778286411841,-0.020981155107957578
0.0157778286411841,-0.048508430609597926
0.012756542305638208,-0.06898603799496453
0.008392462043183033,-0.08207827878233005
0.006378271152819104,-0.09684901197833219
0.0010070954451819635,-0.11866941329060808
-0.002014190890363927,-0.13780422674906534
-0.0010070954451819635,-0.14317540245670252
-0.0006713969634546426,-0.13612573434042877
0.0010070954451819635,-0.1257190814068818
-0.0016784924086366065,-0.11783016708628975
-0.0030212863355458916,-0.10691996643015184
0.0006713969634546426,-0.09349202716105898
-0.0003356984817273213,-0.0780498970016022
0.002014190890363927,-0.06428625925078202
0.006378271152819104,-0.05421530479896238
0.009063859006637675,-0.057236591134508276
0.010406652933546959,-0.07905699244678416
0.007721065079728388,-0.0963454642557412
0.006378271152819104,-0.09517051956969558
0.011078049897001601,-0.07267872129396505
0.009063859006637675,-0.04313725490196078
0.003692683299000534,-0.020309758144502935
0.0010070954451819635,-0.0028534370946822307
-0.0003356984817273213,0.014602883955138474
0.0010070954451819635,0.03659113450827802
0.005706874189364461,0.051529716945143814
0.0030212863355458916,0.05522240024414436
-0.0016784924086366065,0.05085831998168917
0.0010070954451819635,0.043808651865415424
-0.0003356984817273213,0.0387731746395056
-0.0003356984817273213,0.03474479285877775
-0.0003356984817273213,0.033401998931868467
-0.0003356984817273213,0.035416189822232394
-0.0003356984817273213,0.04011596856641489
0.0023498893720912484,0.04515144579232471
0.0023498893720912484,0.043808651865415424
0.0050354772259098195,0.03457694361791409
0.009735255970092317,0.017959868772411687
0.008392462043183033,-0.004196231021591517
0.007049668116273747,-0.030045014114595252
0.007385366598001068,-0.05522240024414436
0.007721065079728388,-0.07939269092851148
0.009735255970092317,-0.09919890135042343
0.006378271152819104,-0.11967650873579004
0.0006713969634546426,-0.1364614328221561
-0.0016784924086366065,-0.14267185473411154
-0.0050354772259098195,-0.13730067902647441
-0.006378271152819104,-0.1270618753337911
-0.003692683299000534,-0.12101930266269931
-0.003692683299000534,-0.11195544365606165
-0.005706874189364461,-0.1002059967956054
-0.0016784924086366065,-0.08476386663614863
-0.0006713969634546426,-0.06932173647669183
-0.0016784924086366065,-0.058915083543144876
0.0050354772259098195,-0.05790798809796292
0.010406652933546959,-0.07469291218432898
0.005706874189364461,-0.09483482108796826
0.0050354772259098195,-0.1002059967956054
0.007721065079728388,-0.08711375600823987
0.010406652933546959,-0.06764324406805522
0.006042572671091783,-0.049851224536507206
0.004364080262455177,-0.03138780804150454
0.0050354772259098195,-0.007553215838864729
0.004364080262455177,0.01829556725413901
0.003692683299000534,0.0387731746395056
0.0030212863355458916,0.052201113908598454
0.0050354772259098195,0.057572289616235596
-0.0003356984817273213,0.05085831998168917
-0.0016784924086366065,0.03776607919432364
0.0016784924086366065,0.029037918669413288
-0.0010070954451819635,0.03440909437705043
-0.0016784924086366065,0.0481727321278706
-0.0050354772259098195,0.05354390783550774
-0.006378271152819104,0.04515144579232471
-0.005706874189364461,0.03474479285877775
-0.0003356984817273213,0.028366521705958644
0.0050354772259098195,0.02265964751659419
0.008392462043183033,0.011245899137865261
0.007049668116273747,-0.009903105210955977
0.008728160524910353,-0.03407339589532311
0.006042572671091783,-0.05656519417105363
0.007049668116273747,-0.07704280155642022
0.009063859006637675,-0.10087739375906005
0.0050354772259098195,-0.12471198596169988
0.0050354772259098195,-0.13847562371252
0.0050354772259098195,-0.13881132219424736
0.004364080262455177,-0.13209735255970093
0.004364080262455177,-0.1257190814068818
0.003692683299000534,-0.11665522240024415
0.0023498893720912484,-0.10356298161287861
-0.0010070954451819635,-0.08761730373083085
-0.003692683299000534,-0.07133592736705577
-0.003692683299000534,-0.05941863126573587
-0.0030212863355458916,-0.05421530479896238
-0.003692683299000534,-0.06361486228732739
0.0016784924086366065,-0.08409246967269397
0.0050354772259098195,-0.1002059967956054
0.007049668116273747,-0.0988632028686961
0.010406652933546959,-0.07771419851987486
0.009063859006637675,-0.052201113908598454
0.005706874189364461,-0.030380712596322572
0.010406652933546959,-0.006042572671091783
0.010406652933546959,0.022323949034866862
0.010406652933546959,0.04682993820096131
0.010406652933546959,0.05824368657969024
0.010406652933546959,0.0528725108720531
0.009063859006637675,0.04129091325246051
0.003692683299000534,0.02937361715114061
0.0006713969634546426,0.0260166323338674
0.0003356984817273213,0.030045014114595252
-0.0030212863355458916,0.04011596856641489
-0.0023498893720912484,0.04917982757305257
-0.004364080262455177,0.04783703364614328
-0.006042572671091783,0.04145876249332417
-0.004364080262455177,0.03440909437705043
-0.0010070954451819635,0.02937361715114061
-0.0003356984817273213,0.020981155107957578
0.006042572671091783,0.0052033264667734795
0.006378271152819104,-0.01896696421759365
0.003692683299000534,-0.048508430609597926
0.011078049897001601,-0.07335011825741969
0.006378271152819104,-0.09214923323414968
0.003692683299000534,-0.11195544365606165
0.006378271152819104,-0.1317616540779736
0.009063859006637675,-0.14048981460288396
0.010406652933546959,-0.13528648813611044
0.007721065079728388,-0.1284046692607004
0.0023498893720912484,-0.12236209658960862
-0.0003356984817273213,-0.11430533302815289
-0.0003356984817273213,-0.09852750438696878
0.0010070954451819635,-0.07737850003814756
-0.004364080262455177,-0.061936369878690785
0.0010070954451819635,-0.05656519417105363
-0.0003356984817273213,-0.05790798809796292
-0.0050354772259098195,-0.06865033951323721
-0.0023498893720912484,-0.08543526359960325
-0.0016784924086366065,-0.0963454642557412
0.0010070954451819635,-0.09483482108796826
0.006042572671091783,-0.07771419851987486
0.010406652933546959,-0.053208209353780414
0.010406652933546959,-0.02366674296177615
0.006378271152819104,0.003860532539864194
0.009063859006637675,0.028702220187685965
0.012420843823910887,0.04750133516441596
0.011749446860456245,0.050522621499961846
0.011749446860456245,0.04313725490196078
0.011749446860456245,0.033401998931868467
0.007721065079728388,0.027359426260776684
0.004364080262455177,0.028702220187685965
0.0023498893720912484,0.03776607919432364
0.0030212863355458916,0.04682993820096131
0.0010070954451819635,0.04632639047837033
0.0030212863355458916,0.04145876249332417
-0.0003356984817273213,0.03608758678568704
-0.0030212863355458916,0.03440909437705043
-0.0016784924086366065,0.029037918669413288
-0.005706874189364461,0.013931486991683832
-0.006378271152819104,-0.010238803692683297
-0.004364080262455177,-0.041123064011596856
-0.0016784924086366065,-0.06999313344014649
-0.0030212863355458916,-0.09214923323414968
0.004028381780727854,-0.1096055542839704
0.003692683299000534,-0.12437628747997252
0.007721065079728388,-0.1364614328221561
0.012420843823910887,-0.14048981460288396
0.010406652933546959,-0.1351186388952468
0.007049668116273747,-0.12236209658960862
0.0050354772259098195,-0.10423437857633323
-0.0023498893720912484,-0.09315632867933166
-0.004364080262455177,-0.08946364538033112
-0.003356984817273213,-0.08174258030060273
-0.0050354772259098195,-0.07200732433051041
-0.0050354772259098195,-0.06126497291523613
-0.0016784924086366065,-0.05790798809796292
-0.002014190890363927,-0.06898603799496453
-0.0016784924086366065,-0.08644235904478523
0.0003356984817273213,-0.09584191653315023
0.003692683299000534,-0.08778515297169451
0.007385366598001068,-0.06596475165941862
0.009735255970092317,-0.035416189822232394
0.009063859006637675,-0.0035248340581368735
0.012420843823910887,0.02400244144350347
0.015106431677729458,0.04649423971923399
0.017120622568093383,0.057236591134508276
0.011749446860456245,0.05656519417105363
0.007721065079728388,0.04783703364614328
0.006378271152819104,0.03978027008468757
0.0050354772259098195,0.03474479285877775
0.007721065079728388,0.035416189822232394
0.004364080262455177,0.042801556420233464
0.0050354772259098195,0.04750133516441596
0.003692683299000534,0.043808651865415424
-0.002014190890363927,0.0387731746395056
0.0030212863355458916,0.03608758678568704
0.006378271152819104,0.03508049134050507
0.004364080262455177,0.027359426260776684
-0.0003356984817273213,0.008560311284046692
-0.0023498893720912484,-0.019638361181048294
-0.0006713969634546426,-0.049515526054779886
0.0010070954451819635,-0.07200732433051041
-0.0003356984817273213,-0.09181353475242236
-0.0030212863355458916,-0.11934081025406272
-0.0003356984817273213,-0.14485389486533912
0.003692683299000534,-0.15794613565270463
0.005706874189364461,-0.15106431677729457
0.007721065079728388,-0.13310444800488286
0.0050354772259098195,-0.11564812695506219
0.007049668116273747,-0.10255588616769665
0.007721065079728388,-0.09617761501487754
0.0050354772259098195,-0.08879224841687647
0.0016784924086366065,-0.07939269092851148
0.0023498893720912484,-0.06529335469596398
0.0016784924086366065,-0.052201113908598454
0.0016784924086366065,-0.05589379720759898
0.006042572671091783,-0.07603570611123828
0.0023498893720912484,-0.09584191653315023
0.0030212863355458916,-0.09684901197833219
0.004699778744182497,-0.08073548485542076
0.0050354772259098195,-0.059250782024872196
0.0050354772259098195,-0.03373769741359579
0.0023498893720912484,-0.0035248340581368735
-0.002014190890363927,0.027359426260776684
-0.0006713969634546426,0.04548714427405204
0.004364080262455177,0.04917982757305257
0.004364080262455177,0.04313725490196078
0.0003356984817273213,0.03675898374914168
0.0023498893720912484,0.03608758678568704
0.003692683299000534,0.03944457160296025
0.007721065079728388,0.044647898069733724
0.009063859006637675,0.049515526054779886
0.005706874189364461,0.049851224536507206
0.008392462043183033,0.049515526054779886
0.007721065079728388,0.04548714427405204
0.006378271152819104,0.03256275272755016
0.002014190890363927,0.017288471808957043
0.0016784924086366065,0.0028534370946822307
0.0023498893720912484,-0.010910200656137941
-0.0010070954451819635,-0.032730601968413826
-0.004364080262455177,-0.057236591134508276
-0.0023498893720912484,-0.07905699244678416
-0.0030212863355458916,-0.10389868009460593
-0.002014190890363927,-0.12907606622415504
-0.0030212863355458916,-0.14737163347829402
0.0006713969634546426,-0.15056076905470359
0.0050354772259098195,-0.13931486991683834
0.012420843823910887,-0.12504768444342718
0.010406652933546959,-0.11396963454642556
0.007721065079728388,-0.1062485694666972
0.008728160524910353,-0.09365987640192262
0.007049668116273747,-0.0780498970016022
0.010406652933546959,-0.06428625925078202
0.004364080262455177,-0.05522240024414436
0.0010070954451819635,-0.05555809872587166
0.0050354772259098195,-0.06663614862287326
0.003692683299000534,-0.08476386663614863
0.0010070954451819635,-0.09517051956969558
0.0023498893720912484,-0.08744945448996719
0.0006713969634546426,-0.0639505607690547
-0.0003356984817273213,-0.03373769741359579
-0.0003356984817273213,-0.0050354772259098195
-0.0023498893720912484,0.019302662699320974
-0.005706874189364461,0.041123064011596856
-0.0023498893720912484,0.05622949568932631
-0.0003356984817273213,0.058915083543144876
-0.0016784924086366065,0.050019073777370866
-0.003692683299000534,0.035751888303959714
0.003356984817273213,0.02668802929732204
0.006378271152819104,0.02668802929732204
0.007049668116273747,0.0387731746395056
0.010406652933546959,0.052201113908598454
0.010406652933546959,0.05857938506141757
0.007049668116273747,0.056900892652780956
0.006042572671091783,0.04750133516441596
0.006378271152819104,0.03407339589532311
0.003692683299000534,0.01594567788204776
0.0023498893720912484,-0.0008392462043183033
0.003356984817273213,-0.01896696421759365
0.0010070954451819635,-0.041123064011596856
0.0010070954451819635,-0.06462195773250935
0.0006713969634546426,-0.09214923323414968
-0.0003356984817273213,-0.11766231784542608
-0.005706874189364461,-0.13495078965438315
-0.0030212863355458916,-0.14183260852979326
0.003692683299000534,-0.14015411612115664
0.0050354772259098195,-0.13192950331883724
0.0023498893720912484,-0.11917296101319905
0.0016784924086366065,-0.10926985580224306
0.006378271152819104,-0.10222018768596933
0.010406652933546959,-0.09231708247501334
0.011078049897001601,-0.07771419851987486
0.010406652933546959,-0.06260776684214542
0.012420843823910887,-0.0528725108720531
0.010406652933546959,-0.05790798809796292
0.012420843823910887,-0.07536430914778362
0.011749446860456245,-0.08946364538033112
0.007721065079728388,-0.08896009765774013
0.002014190890363927,-0.07402151522087433
0.0010070954451819635,-0.05706874189364462
-0.0010070954451819635,-0.0379339284351873
-0.0006713969634546426,-0.012252994583047227
-0.0003356984817273213,0.020645456626230255
0.0010070954451819635,0.0481727321278706
-0.0016784924086366065,0.05992217898832684
-0.004364080262455177,0.057236591134508276
-0.0030212863355458916,0.044815747310597384
0.0023498893720912484,0.032730601968413826
0.0016784924086366065,0.02400244144350347
0.0023498893720912484,0.026352330815594724
0.006378271152819104,0.0387731746395056
0.007721065079728388,0.049851224536507206
0.006042572671091783,0.05085831998168917
0.003692683299000534,0.04078736552986953
0.006713969634546426,0.028030823224231328
0.0050354772259098195,0.017288471808957043
0.006378271152819104,0.006546120393682764
0.0050354772259098195,-0.010238803692683297
0.0023498893720912484,-0.033401998931868467
0.0010070954451819635,-0.05622949568932631
0.0010070954451819635,-0.0780498970016022
-0.0010070954451819635,-0.10238803692683297
-0.0003356984817273213,-0.12655832761120012
0.0016784924086366065,-0.14082551308461125
0.004364080262455177,-0.14015411612115664
0.0023498893720912484,-0.13209735255970093
0.0006713969634546426,-0.12001220721751735
0.0006713969634546426,-0.10524147402151522
0.0006713969634546426,-0.08946364538033112
0.003692683299000534,-0.0767071030746929
0.007385366598001068,-0.07083237964446479
0.009063859006637675,-0.07267872129396505
0.005706874189364461,-0.07469291218432898
0.007385366598001068,-0.07603570611123828
0.007385366598001068,-0.0767071030746929
0.008392462043183033,-0.0800640878919661
0.012420843823910887,-0.08409246967269397
0.010070954451819639,-0.0780498970016022
0.0050354772259098195,-0.06462195773250935
0.003356984817273213,-0.043472953383688104
0.0010070954451819635,-0.020309758144502935
0.003692683299000534,0.008224612802319372
0.0016784924086366065,0.03927672236209659
-0.0003356984817273213,0.058075837338826576
-0.0003356984817273213,0.058915083543144876
-0.0023498893720912484,0.04666208896009766
-0.007049668116273747,0.033401998931868467
-0.008392462043183033,0.02349889372091249
-0.005706874189364461,0.02333104448004883
-0.0003356984817273213,0.03474479285877775
0.0023498893720912484,0.04750133516441596
0.0050354772259098195,0.051865415426871134
0.007049668116273747,0.04548714427405204
0.007049668116273747,0.033234149691004806
0.006378271152819104,0.0213168535896849
0.0050354772259098195,0.017288471808957043
0.006042572671091783,0.01292439154650187
0.010406652933546959,-0.0055390249485008005
0.010070954451819639,-0.03407339589532311
0.009063859006637675,-0.05992217898832684
0.007049668116273747,-0.08073548485542076
0.0050354772259098195,-0.10222018768596933
0.003692683299000534,-0.1284046692607004
0.0010070954451819635,-0.1492179751277943
0.0016784924086366065,-0.1512321660181582
0.0023498893720912484,-0.13881132219424736
-0.003692683299000534,-0.12001220721751735
-0.003356984817273213,-0.10289158464942397
-0.0003356984817273213,-0.08879224841687647
0.0023498893720912484,-0.0775463492790112
0.0023498893720912484,-0.07200732433051041
0.009063859006637675,-0.06797894254978255
0.009063859006637675,-0.06562905317769131
0.0050354772259098195,-0.06730754558632791
0.0050354772259098195,-0.07469291218432898
0.005706874189364461,-0.08207827878233005
0.002014190890363927,-0.08090333409628443
0.0023498893720912484,-0.07284657053482871
0.0050354772259098195,-0.054551003280689715
0.003692683299000534,-0.03205920500495917
0.007721065079728388,-0.0055390249485008005
0.0030212863355458916,0.021652552071412222
-0.0016784924086366065,0.04129091325246051
-0.0016784924086366065,0.049851224536507206
0.003356984817273213,0.04313725490196078
0.003692683299000534,0.027695124742504008
-0.0016784924086366065,0.014602883955138474
-0.0023498893720912484,0.012588693064774548
-0.005706874189364461,0.025345235370412753
-0.0010070954451819635,0.041123064011596856
-0.0003356984817273213,0.049011978332188906
0.0023498893720912484,0.044815747310597384
0.0050354772259098195,0.03675898374914168
0.0030212863355458916,0.03474479285877775
0.007385366598001068,0.030716411078049892
0.009063859006637675,0.01326009002822919
0.006378271152819104,-0.011581597619592583
0.007721065079728388,-0.03810177767605096
0.009063859006637675,-0.05522240024414436
0.009063859006637675,-0.06730754558632791
0.010406652933546959,-0.08627450980392155
0.012420843823910887,-0.1096055542839704
0.007721065079728388,-0.13142595559624626
0.007721065079728388,-0.14048981460288396
-0.0006713969634546426,-0.1364614328221561
-0.0030212863355458916,-0.12370489051651787
-0.0016784924086366065,-0.10557717250324253
-0.0023498893720912484,-0.08929579613946745
-0.0030212863355458916,-0.0780498970016022
0.0010070954451819635,-0.07536430914778362
0.0003356984817273213,-0.07284657053482871
-0.0003356984817273213,-0.06747539482719157
0.0010070954451819635,-0.061936369878690785
0.007721065079728388,-0.06529335469596398
0.010406652933546959,-0.0780498970016022
0.007721065079728388,-0.08879224841687647
0.007721065079728388,-0.08677805752651253
0.009735255970092317,-0.07335011825741969
0.010406652933546959,-0.05522240024414436
0.006378271152819104,-0.03105210955977722
0.007721065079728388,0.003860532539864194
0.013092240787365528,0.03776607919432364
0.007721065079728388,0.05488670176241703
0.0023498893720912484,0.05589379720759898
0.0010070954451819635,0.048844129091325246
0.003692683299000534,0.03944457160296025
0.0010070954451819635,0.027359426260776684
-0.0006713969634546426,0.016617074845502403
0.0010070954451819635,0.017959868772411687
-0.0003356984817273213,0.025345235370412753
-0.0003356984817273213,0.033401998931868467
-0.0003356984817273213,0.04011596856641489
-0.0016784924086366065,0.04011596856641489
0.0010070954451819635,0.033066300450141146
0.003692683299000534,0.017288471808957043
0.005706874189364461,-0.0028534370946822307
0.013092240787365528,-0.02652018005645838
0.016784924086366067,-0.04783703364614328
0.014435034714274816,-0.06327916380560006
0.009735255970092317,-0.0797283894102388
0.0050354772259098195,-0.10222018768596933
0.0010070954451819635,-0.12806897077897306
0.0010070954451819635,-0.1453574425879301
0.003692683299000534,-0.1492179751277943
0.0050354772259098195,-0.13847562371252
0.003356984817273213,-0.12034790569924468
0.004699778744182497,-0.10289158464942397
0.005706874189364461,-0.0891279468986038
0.002014190890363927,-0.08241397726405737
-0.0003356984817273213,-0.07737850003814756
-0.0030212863355458916,-0.07267872129396505
-0.0016784924086366065,-0.06932173647669183
-0.0016784924086366065,-0.06730754558632791
-0.004364080262455177,-0.07469291218432898
0.0016784924086366065,-0.08426031891355765
0.003692683299000534,-0.08493171587701229
0.009399557488364994,-0.07100022888532845
0.007049668116273747,-0.04649423971923399
0.003356984817273213,-0.022995345998321506
0.004364080262455177,-0.003860532539864194
0.003692683299000534,0.018631265735866327
0.0050354772259098195,0.04145876249332417
0.005706874189364461,0.05622949568932631
0.006378271152819104,0.057236591134508276
0.004699778744182497,0.049515526054779886
0.004699778744182497,0.03743038071259632
0.0030212863355458916,0.025345235370412753
0.0016784924086366065,0.024673838406958113
0.0016784924086366065,0.03172350652323186
0.0003356984817273213,0.042465857938506144
-0.0030212863355458916,0.048508430609597926
-0.002014190890363927,0.050186923018234526
-0.0016784924086366065,0.0473334859235523
0.0010070954451819635,0.03474479285877775
0.003692683299000534,0.014938582436865796
0.003692683299000534,-0.008896009765774012
0.009399557488364994,-0.0323949034866865
0.006378271152819104,-0.0528725108720531
0.007049668116273747,-0.07200732433051041
0.004028381780727854,-0.09164568551155872
-0.0006713969634546426,-0.11866941329060808
0.0023498893720912484,-0.14384679942015716
0.0023498893720912484,-0.15593194476234074
0.006042572671091783,-0.1487144274052033
0.011749446860456245,-0.1279011215381094
0.013092240787365528,-0.10708781567101548
0.010406652933546959,-0.09315632867933166
0.0050354772259098195,-0.08224612802319371
0.0010070954451819635,-0.07083237964446479
0.003692683299000534,-0.05992217898832684
0.0023498893720912484,-0.05522240024414436
0.0006713969634546426,-0.06260776684214542
-0.002014190890363927,-0.07637140459296558
-0.0030212863355458916,-0.08879224841687647
-0.0050354772259098195,-0.0908064393072404
-0.0030212863355458916,-0.08207827878233005
0.0010070954451819635,-0.06462195773250935
0.0023498893720912484,-0.04313725490196078
0.003692683299000534,-0.024673838406958113
0.004364080262455177,-0.001846341649500267
0.007049668116273747,0.02366674296177615
0.007721065079728388,0.04531929503318838
0.006378271152819104,0.05488670176241703
0.006378271152819104,0.052201113908598454
0.008728160524910353,0.042801556420233464
0.0050354772259098195,0.030045014114595252
0.007721065079728388,0.02333104448004883
0.007049668116273747,0.030045014114595252
0.0023498893720912484,0.04145876249332417
0.0016784924086366065,0.050522621499961846
0.004364080262455177,0.053208209353780414
0.0010070954451819635,0.050690470740825506
-0.0003356984817273213,0.03944457160296025
0.0016784924086366065,0.02265964751659419
0.0013427939269092851,0.0028534370946822307
0.0010070954451819635,-0.01913481345845731
0.0010070954451819635,-0.03843747615777828
0.003356984817273213,-0.05589379720759898
0.007049668116273747,-0.0767071030746929
0.010406652933546959,-0.09919890135042343
0.009735255970092317,-0.12001220721751735
0.010406652933546959,-0.13310444800488286
0.007385366598001068,-0.1351186388952468
0.008392462043183033,-0.13344014648661018
0.010406652933546959,-0.12639047837033646
0.010406652933546959,-0.11161974517433432
0.013092240787365528,-0.0908064393072404
0.009399557488364994,-0.07536430914778362
0.007721065079728388,-0.06764324406805522
0.009063859006637675,-0.062272068360418105
0.006378271152819104,-0.06260776684214542
0.0050354772259098195,-0.06865033951323721
0.007721065079728388,-0.08409246967269397
0.006378271152819104,-0.09684901197833219
0.0016784924086366065,-0.09433127336537728
-0.0016784924086366065,-0.07637140459296558
-0.0023498893720912484,-0.05387960631723506
-0.009063859006637675,-0.037094682230869
-0.008392462043183033,-0.015106431677729458
-0.0030212863355458916,0.013931486991683832
-0.0003356984817273213,0.03910887312123293
0.0023498893720912484,0.052201113908598454
0.003692683299000534,0.05387960631723506
0.0023498893720912484,0.04750133516441596
0.007049668116273747,0.03390554665445944
0.007721065079728388,0.020981155107957578
0.007049668116273747,0.017959868772411687
0.008728160524910353,0.028030823224231328
0.009735255970092317,0.04414435034714275
0.007721065079728388,0.05421530479896238
0.004699778744182497,0.05387960631723506
-0.0030212863355458916,0.04682993820096131
-0.0010070954451819635,0.036423285267414354
0.0016784924086366065,0.02400244144350347
-0.0003356984817273213,0.003860532539864194
-0.0030212863355458916,-0.029709315632867935
-0.0003356984817273213,-0.05992217898832684
-0.0010070954451819635,-0.07838559548332952
-0.0003356984817273213,-0.08879224841687647
0.004699778744182497,-0.10305943389028763
0.0050354772259098195,-0.12286564431219957
0.007049668116273747,-0.13713282978561073
0.006378271152819104,-0.14317540245670252
0.007721065079728388,-0.13847562371252
0.009063859006637675,-0.1257190814068818
0.009735255970092317,-0.1062485694666972
0.007721065079728388,-0.08543526359960325
0.009063859006637675,-0.07066453040360113
0.007721065079728388,-0.06243991760128176
0.007721065079728388,-0.060593575951781484
0.007049668116273747,-0.06092927443350881
0.009063859006637675,-0.07133592736705577
0.008392462043183033,-0.08627450980392155
0.007721065079728388,-0.09147783627069504
0.003692683299000534,-0.08207827878233005
-0.003356984817273213,-0.06361486228732739
-0.01376363775082017,-0.04783703364614328
-0.012420843823910887,-0.032730601968413826
-0.011749446860456245,-0.009735255970092317
-0.011078049897001601,0.020981155107957578
-0.0006713969634546426,0.048844129091325246
0.006378271152819104,0.061936369878690785
0.007385366598001068,0.05740444037537193
0.009735255970092317,0.043472953383688104
0.008728160524910353,0.030380712596322572
0.009063859006637675,0.02400244144350347
0.007385366598001068,0.025345235370412753
0.008392462043183033,0.029037918669413288
0.011749446860456245,0.033401998931868467
0.012420843823910887,0.037094682230869
0.010406652933546959,0.03978027008468757
0.010070954451819639,0.0387731746395056
0.006378271152819104,0.030716411078049892
0.0050354772259098195,0.01628137636377508
0.0050354772259098195,-0.008224612802319372
0.004699778744182497,-0.03910887312123293
-0.0003356984817273213,-0.06730754558632791
-0.005706874189364461,-0.0861066605630579
-0.0050354772259098195,-0.10154879072251469
-0.006378271152819104,-0.12202639810788128
-0.0023498893720912484,-0.14048981460288396
0.0010070954451819635,-0.15056076905470359
0.0050354772259098195,-0.14653238727397572
0.007049668116273747,-0.1317616540779736
0.008392462043183033,-0.11262684061951626
0.010406652933546959,-0.09147783627069504
0.010406652933546959,-0.07704280155642022
0.008392462043183033,-0.06881818875410085
0.009063859006637675,-0.06529335469596398
0.009063859006637675,-0.06361486228732739
0.005706874189364461,-0.06596475165941862
0.004699778744182497,-0.07637140459296558
0.005706874189364461,-0.08644235904478523
0.0023498893720912484,-0.08879224841687647
-0.0010070954451819635,-0.0767071030746929
0.003692683299000534,-0.055390249485008015
0.0010070954451819635,-0.03256275272755016
-0.006042572671091783,-0.009567406729228655
-0.008728160524910353,0.01594567788204776
-0.007385366598001068,0.033401998931868467
-0.005706874189364461,0.04414435034714275
-0.0010070954451819635,0.04800488288700694
-0.0003356984817273213,0.04615854123750667
0.003692683299000534,0.03743038071259632
0.0050354772259098195,0.02668802929732204
0.007721065079728388,0.02333104448004883
0.0050354772259098195,0.028030823224231328
0.007049668116273747,0.035751888303959714
0.009735255970092317,0.04011596856641489
0.013092240787365528,0.04078736552986953
0.011749446860456245,0.0387731746395056
0.011749446860456245,0.03205920500495917
0.010406652933546959,0.017288471808957043
0.010406652933546959,-0.007217517357137408
0.007721065079728388,-0.0323949034866865
0.0023498893720912484,-0.05304036011291676
0.0003356984817273213,-0.06898603799496453
-0.0003356984817273213,-0.08476386663614863
0.0010070954451819635,-0.10389868009460593
-0.0003356984817273213,-0.12437628747997252
-0.0003356984817273213,-0.14032196536202027
0.004364080262455177,-0.14518959334706644
0.003692683299000534,-0.13679713130388343
0.002014190890363927,-0.11665522240024415
0.002014190890363927,-0.09114213778896772
0.004364080262455177,-0.07402151522087433
0.008392462043183033,-0.06663614862287326
0.010406652933546959,-0.06596475165941862
0.010406652933546959,-0.06596475165941862
0.007721065079728388,-0.06495765621423667
0.007721065079728388,-0.07267872129396505
0.010406652933546959,-0.09282063019760432
0.006378271152819104,-0.10389868009460593
0.002014190890363927,-0.09651331349660487
0.003356984817273213,-0.07469291218432898
0.0010070954451819635,-0.04716563668268864
0.0016784924086366065,-0.020309758144502935
-0.0003356984817273213,0.006546120393682764
-0.002014190890363927,0.03138780804150454
0.0010070954451819635,0.04750133516441596
-0.0016784924086366065,0.05119401846341649
-0.004364080262455177,0.050186923018234526
-0.0030212863355458916,0.049515526054779886
-0.0003356984817273213,0.043472953383688104
0.0016784924086366065,0.033401998931868467
-0.0003356984817273213,0.027359426260776684
0.0023498893720912484,0.033234149691004806
0.003692683299000534,0.041123064011596856
0.007049668116273747,0.044647898069733724
0.008728160524910353,0.04515144579232471
0.003692683299000534,0.04011596856641489
0.0016784924086366065,0.03138780804150454
0.004364080262455177,0.01594567788204776
0.003692683299000534,-0.010574502174410621
0.004364080262455177,-0.040451667048142216
0.0050354772259098195,-0.06327916380560006
-0.0003356984817273213,-0.07737850003814756
-0.0030212863355458916,-0.0955062180514229
0.0016784924086366065,-0.12101930266269931
0.0006713969634546426,-0.14250400549324788
-0.0016784924086366065,-0.14737163347829402
-0.0016784924086366065,-0.13780422674906534
-0.0010070954451819635,-0.12605477988860914
-0.0003356984817273213,-0.11900511177233539
-0.0003356984817273213,-0.10893415732051576
0.0023498893720912484,-0.09483482108796826
0.003356984817273213,-0.0767071030746929
0.0050354772259098195,-0.06294346532387274
0.009735255970092317,-0.05857938506141757
0.012420843823910887,-0.06260776684214542
0.009735255970092317,-0.0797283894102388
0.011078049897001601,-0.09617761501487754
0.013092240787365528,-0.09852750438696878
0.015106431677729458,-0.08274967574578469
0.009735255970092317,-0.05522240024414436
0.009063859006637675,-0.025009536888685433
0.009063859006637675,0.0023498893720912484
0.006378271152819104,0.019974059662775615
0.0030212863355458916,0.033401998931868467
0.007721065079728388,0.044480048828870064
0.006378271152819104,0.050522621499961846
0.0023498893720912484,0.050690470740825506
-0.0003356984817273213,0.042801556420233464
-0.007049668116273747,0.032730601968413826
-0.003356984817273213,0.0260166323338674
-0.0023498893720912484,0.026352330815594724
-0.0010070954451819635,0.028030823224231328
-0.0016784924086366065,0.032730601968413826
0.0023498893720912484,0.04078736552986953
0.006042572671091783,0.04145876249332417
0.007049668116273747,0.03390554665445944
0.008728160524910353,0.019974059662775615
0.009063859006637675,0.003189135576409552
0.011078049897001601,-0.01896696421759365
0.011749446860456245,-0.04582284275577936
0.015442130159456776,-0.07351796749828336
0.010406652933546959,-0.09684901197833219
0.006378271152819104,-0.11866941329060808
0.007721065079728388,-0.13662928206301975
0.007049668116273747,-0.14267185473411154
0.0030212863355458916,-0.13881132219424736
-0.0016784924086366065,-0.12991531242847335
-0.005706874189364461,-0.12169069962615398
-0.0010070954451819635,-0.11094834821087966
-0.0016784924086366065,-0.0988632028686961
-0.0030212863355458916,-0.08409246967269397
-0.004364080262455177,-0.06865033951323721
-0.0003356984817273213,-0.058075837338826576
0.0023498893720912484,-0.05622949568932631
0.004364080262455177,-0.06898603799496453
0.010070954451819639,-0.08543526359960325
0.012756542305638208,-0.09282063019760432
0.010406652933546959,-0.08509956511787593
0.010406652933546959,-0.06730754558632791
0.010406652933546959,-0.04582284275577936
0.007721065079728388,-0.025680933852140077
0.010406652933546959,-0.006881818875410085
0.009735255970092317,0.01326009002822919
0.008392462043183033,0.033401998931868467
0.005706874189364461,0.049347676813916226
-0.003692683299000534,0.057236591134508276
-0.007049668116273747,0.053208209353780414
-0.005706874189364461,0.04213015945677882
-0.0016784924086366065,0.033066300450141146
-0.0003356984817273213,0.03558403906309605
0.0010070954451819635,0.04917982757305257
-0.004364080262455177,0.056900892652780956
-0.006378271152819104,0.050522621499961846
-0.003356984817273213,0.04414435034714275
0.0003356984817273213,0.04145876249332417
0.004364080262455177,0.03843747615777828
0.006042572671091783,0.02719157701991302
0.007049668116273747,0.003189135576409552
0.007049668116273747,-0.027023727779049357
0.007049668116273747,-0.05589379720759898
0.007721065079728388,-0.0788891432059205
0.008392462043183033,-0.09919890135042343
0.009063859006637675,-0.11833371480888075
0.007049668116273747,-0.13344014648661018
0.0050354772259098195,-0.13914702067597465
0.0023498893720912484,-0.13612573434042877
-0.002014190890363927,-0.13109025711451894
0.0003356984817273213,-0.11850156404974439
0.0016784924086366065,-0.10356298161287861
-0.0010070954451819635,-0.09047074082551307
0.0003356984817273213,-0.07771419851987486
-0.0016784924086366065,-0.06865033951323721
-0.0030212863355458916,-0.06344701304646372
-0.002014190890363927,-0.06529335469596398
-0.0010070954451819635,-0.0780498970016022
0.0050354772259098195,-0.09349202716105898
0.008392462043183033,-0.0955062180514229
0.010406652933546959,-0.07939269092851148
0.01376363775082017,-0.05555809872587166
0.011413748378728923,-0.03390554665445944
0.010406652933546959,-0.012252994583047227
0.011078049897001601,0.012588693064774548
0.013092240787365528,0.037094682230869
0.012756542305638208,0.0520332646677348
0.010070954451819639,0.050019073777370866
0.0050354772259098195,0.04011596856641489
0.0050354772259098195,0.029877164873731592
0.0023498893720912484,0.02400244144350347
-0.0003356984817273213,0.02333104448004883
0.0023498893720912484,0.030380712596322572
-0.0003356984817273213,0.04145876249332417
-0.0016784924086366065,0.04414435034714275
-0.0030212863355458916,0.03910887312123293
-0.0030212863355458916,0.030380712596322572
-0.0006713969634546426,0.024673838406958113
0.0023498893720912484,0.019302662699320974
0.0050354772259098195,0.00788891432059205
0.009063859006637675,-0.01292439154650187
0.011078049897001601,-0.043305104142824444
0.010406652933546959,-0.07066453040360113
0.008392462043183033,-0.09147783627069504
0.004364080262455177,-0.11128404669260701
0.0050354772259098195,-0.1279011215381094
0.010406652933546959,-0.13579003585870145
0.008728160524910353,-0.13344014648661018
0.009735255970092317,-0.1304188601510643
0.009735255970092317,-0.12588693064774548
0.007385366598001068,-0.11631952391851681
0.0010070954451819635,-0.10121309224078735
-0.0023498893720912484,-0.08207827878233005
-0.006378271152819104,-0.06865033951323721
-0.0030212863355458916,-0.06126497291523613
-0.0016784924086366065,-0.05992217898832684
-0.008392462043183033,-0.06680399786373693
-0.008392462043183033,-0.08207827878233005
-0.0030212863355458916,-0.0955062180514229
0.0003356984817273213,-0.09684901197833219
0.0010070954451819635,-0.0800640878919661
0.0050354772259098195,-0.05656519417105363
0.011749446860456245,-0.03054856183718624
0.007721065079728388,-0.001846341649500267
0.009063859006637675,0.029205767910276948
0.011078049897001601,0.05421530479896238
0.009063859006637675,0.058915083543144876
0.007049668116273747,0.0481727321278706
0.007721065079728388,0.03608758678568704
0.006378271152819104,0.03205920500495917
0.0023498893720912484,0.035416189822232394
0.0016784924086366065,0.042465857938506144
0.0010070954451819635,0.04750133516441596
-0.0016784924086366065,0.04414435034714275
0.0010070954451819635,0.04011596856641489
-0.0010070954451819635,0.03810177767605096
-0.003692683299000534,0.035751888303959714
-0.0030212863355458916,0.03054856183718624
-0.007049668116273747,0.019302662699320974
-0.0030212863355458916,0.0011749446860456242
0.0003356984817273213,-0.02752727550164034
0.004364080262455177,-0.05992217898832684
0.008392462043183033,-0.08342107270923933
0.011749446860456245,-0.09752040894178682
0.007385366598001068,-0.11044480048828872
0.0030212863355458916,-0.12454413672083621
0.006378271152819104,-0.13276874952315554
0.006378271152819104,-0.13209735255970093
0.007049668116273747,-0.12504768444342718
0.007385366598001068,-0.11430533302815289
0.009063859006637675,-0.10490577553978789
0.007721065079728388,-0.09701686121919585
0.006378271152819104,-0.08577096208133059
0.004364080262455177,-0.07603570611123828
0.006378271152819104,-0.06730754558632791
0.004364080262455177,-0.06327916380560006
-0.0006713969634546426,-0.07402151522087433
-0.0016784924086366065,-0.09013504234378575
-0.0003356984817273213,-0.0988632028686961
-0.0003356984817273213,-0.09147783627069504
-0.0030212863355458916,-0.07402151522087433
0.0016784924086366065,-0.04716563668268864
0.0050354772259098195,-0.01560997940032044
0.007385366598001068,0.013931486991683832
0.006378271152819104,0.03675898374914168
0.005706874189364461,0.04917982757305257
0.0050354772259098195,0.051529716945143814
0.003692683299000534,0.04548714427405204
0.006042572671091783,0.03944457160296025
0.005706874189364461,0.03608758678568704
0.005706874189364461,0.03675898374914168
0.0050354772259098195,0.041794460975051496
0.004699778744182497,0.04548714427405204
0.004364080262455177,0.04414435034714275
0.0050354772259098195,0.04145876249332417
0.0050354772259098195,0.03810177767605096
0.0016784924086366065,0.032730601968413826
0.003692683299000534,0.02333104448004883
0.006042572671091783,0.006881818875410085
0.003356984817273213,-0.0157778286411841
-0.005706874189364461,-0.04414435034714275
-0.007049668116273747,-0.06630045014114595
-0.006378271152819104,-0.08577096208133059
-0.0016784924086366065,-0.11262684061951626
0.007049668116273747,-0.14015411612115664
0.015106431677729458,-0.15458915083543145
0.014099336232547494,-0.14854657816433967
0.008392462043183033,-0.13310444800488286
0.007721065079728388,-0.11917296101319905
0.005706874189364461,-0.10759136339360646
0.009735255970092317,-0.09970244907301441
0.006378271152819104,-0.09013504234378575
0.006378271152819104,-0.08073548485542076
0.007049668116273747,-0.06680399786373693
0.0013427939269092851,-0.05421530479896238
-0.0016784924086366065,-0.05656519417105363
0.0050354772259098195,-0.07402151522087433
0.006042572671091783,-0.0955062180514229
0.0013427939269092851,-0.09987029831387809
-0.003356984817273213,-0.0861066605630579
-0.0023498893720912484,-0.06092927443350881
-0.0003356984817273213,-0.029709315632867935
0.0003356984817273213,0.0008392462043183033
0.0023498893720912484,0.028030823224231328
0.0016784924086366065,0.044815747310597384
0.004364080262455177,0.04917982757305257
0.009063859006637675,0.043976501106279084
0.011078049897001601,0.03843747615777828
0.009735255970092317,0.03743038071259632
0.011749446860456245,0.037094682230869
0.007721065079728388,0.0387731746395056
0.009063859006637675,0.04414435034714275
0.009735255970092317,0.04783703364614328
0.009063859006637675,0.0481727321278706
0.009399557488364994,0.04414435034714275
0.0030212863355458916,0.03373769741359579
0.0010070954451819635,0.021988250553139542
-0.0023498893720912484,0.009735255970092317
-0.0003356984817273213,-0.0021820401312275884
0.0010070954451819635,-0.019302662699320974
-0.004364080262455177,-0.041123064011596856
-0.004364080262455177,-0.06529335469596398
-0.0030212863355458916,-0.09449912260624094
-0.005706874189364461,-0.12437628747997252
-0.0030212863355458916,-0.14670023651483938
-0.002014190890363927,-0.15190356298161287
0.0010070954451819635,-0.1414969100480659
0.009063859006637675,-0.1257190814068818
0.014435034714274816,-0.11061264972915236
0.012420843823910887,-0.10087739375906005
0.009735255970092317,-0.08879224841687647
0.009063859006637675,-0.07536430914778362
0.003692683299000534,-0.06462195773250935
0.0016784924086366065,-0.057236591134508276
0.006713969634546426,-0.057572289616235596
0.006713969634546426,-0.06965743495841917
0.007721065079728388,-0.08879224841687647
0.007049668116273747,-0.09852750438696878
0.003692683299000534,-0.08979934386205844
0.0023498893720912484,-0.06630045014114595
-0.0016784924086366065,-0.03810177767605096
-0.0003356984817273213,-0.011581597619592583
-0.0023498893720912484,0.01376363775082017
0.0006713969634546426,0.037094682230869
0.0006713969634546426,0.05119401846341649
0.0010070954451819635,0.05488670176241703
0.007721065079728388,0.049515526054779886
0.008392462043183033,0.03608758678568704
0.005706874189364461,0.024673838406958113
0.009063859006637675,0.02333104448004883
0.010406652933546959,0.03675898374914168
0.010406652933546959,0.051529716945143814
0.009063859006637675,0.05656519417105363
0.0050354772259098195,0.05085831998168917
0.0010070954451819635,0.04011596856641489
0.0050354772259098195,0.030716411078049892
0.007721065079728388,0.019806210421911954
0.0030212863355458916,0.006881818875410085
0.003692683299000534,-0.010238803692683297
0.0016784924086366065,-0.033066300450141146
-0.0003356984817273213,-0.057572289616235596
-0.0003356984817273213,-0.08375677119096665
-0.006042572671091783,-0.10893415732051576
-0.007049668116273747,-0.13226520180056459
-0.0016784924086366065,-0.14518959334706644
0.0010070954451819635,-0.14418249790188448
-0.004364080262455177,-0.13411154345006485
-0.0003356984817273213,-0.11967650873579004
0.006378271152819104,-0.10759136339360646
0.010406652933546959,-0.09752040894178682
0.010406652933546959,-0.09013504234378575
0.010406652933546959,-0.07939269092851148
0.013092240787365528,-0.06529335469596398
0.012420843823910887,-0.05522240024414436
0.009735255970092317,-0.05790798809796292
0.014435034714274816,-0.07335011825741969
0.012420843823910887,-0.0882887006942855
0.010406652933546959,-0.0908064393072404
0.006378271152819104,-0.0788891432059205
0.004364080262455177,-0.062272068360418105
0.0030212863355458916,-0.04213015945677882
0.0050354772259098195,-0.01829556725413901
0.003692683299000534,0.013931486991683832
0.0006713969634546426,0.042465857938506144
-0.0030212863355458916,0.057572289616235596
-0.0050354772259098195,0.05790798809796292
-0.005706874189364461,0.043976501106279084
-0.004364080262455177,0.02937361715114061
-0.004699778744182497,0.023163195239185166
-0.0030212863355458916,0.030380712596322572
0.0023498893720912484,0.04145876249332417
0.003692683299000534,0.0481727321278706
0.0050354772259098195,0.049515526054779886
0.0050354772259098195,0.042801556420233464
0.006378271152819104,0.035416189822232394
0.006378271152819104,0.026352330815594724
0.006378271152819104,0.014602883955138474
0.007721065079728388,-0.0030212863355458916
0.009063859006637675,-0.028702220187685965
0.007049668116273747,-0.05253681239032577
0.003692683299000534,-0.07570000762951096
0.004364080262455177,-0.10255588616769665
0.0016784924086366065,-0.13109025711451894
0.0023498893720912484,-0.147875181200885
0.0023498893720912484,-0.14653238727397572
-0.0003356984817273213,-0.13713282978561073
0.0010070954451819635,-0.1279011215381094
-0.0016784924086366065,-0.11766231784542608
0.003692683299000534,-0.10490577553978789
0.006713969634546426,-0.0908064393072404
0.007721065079728388,-0.08073548485542076
0.009063859006637675,-0.0767071030746929
0.010070954451819639,-0.07335011825741969
0.007721065079728388,-0.06999313344014649
0.008392462043183033,-0.07267872129396505
0.011749446860456245,-0.07939269092851148
0.008392462043183033,-0.08426031891355765
0.006378271152819104,-0.08073548485542076
0.0023498893720912484,-0.06865033951323721
0.0050354772259098195,-0.05085831998168917
0.006378271152819104,-0.03105210955977722
0.0023498893720912484,-0.0035248340581368735
0.0023498893720912484,0.02937361715114061
-0.0003356984817273213,0.05421530479896238
-0.0010070954451819635,0.05958648050659952
-0.0010070954451819635,0.04917982757305257
-0.0003356984817273213,0.036423285267414354
-0.0050354772259098195,0.02668802929732204
-0.007049668116273747,0.024673838406958113
-0.0010070954451819635,0.032730601968413826
-0.0003356984817273213,0.04414435034714275
-0.0003356984817273213,0.05085831998168917
0.0050354772259098195,0.050186923018234526
0.0050354772259098195,0.04414435034714275
0.006378271152819104,0.03474479285877775
0.007721065079728388,0.027359426260776684
0.013092240787365528,0.020645456626230255
0.014435034714274816,0.003860532539864194
0.011749446860456245,-0.02366674296177615
0.006378271152819104,-0.051865415426871134
0.0050354772259098195,-0.07402151522087433
0.0023498893720912484,-0.09617761501487754
0.0003356984817273213,-0.12169069962615398
0.0016784924086366065,-0.14317540245670252
0.003692683299000534,-0.14955367360952163
0.0023498893720912484,-0.14250400549324788
-0.0010070954451819635,-0.12303349355306323
0.0023498893720912484,-0.10087739375906005
0.0010070954451819635,-0.08543526359960325
0.0003356984817273213,-0.07570000762951096
0.002014190890363927,-0.07267872129396505
0.008728160524910353,-0.07167162584878309
0.010406652933546959,-0.06965743495841917
0.013092240787365528,-0.06999313344014649
0.014435034714274816,-0.07570000762951096
0.0157778286411841,-0.0844281681544213
0.011749446860456245,-0.0852674143587396
0.0050354772259098195,-0.07956054016937514
0.0030212863355458916,-0.06529335469596398
-0.0003356984817273213,-0.04313725490196078
-0.0030212863355458916,-0.013931486991683832
-0.0023498893720912484,0.019302662699320974
0.0010070954451819635,0.04582284275577936
0.0023498893720912484,0.05790798809796292
-0.0016784924086366065,0.05253681239032577
-0.005706874189364461,0.03944457160296025
-0.0050354772259098195,0.0260166323338674
-0.0050354772259098195,0.018631265735866327
-0.007049668116273747,0.024673838406958113
-0.007049668116273747,0.0379339284351873
-0.0003356984817273213,0.04515144579232471
-0.004364080262455177,0.04515144579232471
-0.0003356984817273213,0.042465857938506144
0.0023498893720912484,0.03810177767605096
0.007049668116273747,0.027359426260776684
0.010070954451819639,0.00788891432059205
0.007721065079728388,-0.01292439154650187
0.0050354772259098195,-0.035751888303959714
0.007049668116273747,-0.05488670176241703
0.007721065079728388,-0.07267872129396505
0.011749446860456245,-0.09030289158464942
0.010406652933546959,-0.11061264972915236
0.010406652933546959,-0.13545433737697413
0.004364080262455177,-0.14988937209124895
0.0030212863355458916,-0.14854657816433967
0.0016784924086366065,-0.1304188601510643
0.0006713969634546426,-0.10759136339360646
0.003356984817273213,-0.0891279468986038
-0.0006713969634546426,-0.07939269092851148
-0.004364080262455177,-0.07737850003814756
-0.004699778744182497,-0.07335011825741969
-0.0003356984817273213,-0.06663614862287326
0.0030212863355458916,-0.06092927443350881
0.003692683299000534,-0.064789806973373
0.009063859006637675,-0.07838559548332952
0.011078049897001601,-0.08744945448996719
0.013092240787365528,-0.08744945448996719
0.012756542305638208,-0.07872129396505684
0.009063859006637675,-0.060593575951781484
0.007721065079728388,-0.03440909437705043
0.010406652933546959,0.0003356984817273213
0.007385366598001068,0.033234149691004806
0.007049668116273747,0.05354390783550774
0.009063859006637675,0.05992217898832684
0.004364080262455177,0.05488670176241703
0.0016784924086366065,0.04548714427405204
-0.0003356984817273213,0.03440909437705043
-0.0050354772259098195,0.02265964751659419
-0.005706874189364461,0.0213168535896849
-0.0010070954451819635,0.027359426260776684
-0.004699778744182497,0.0379339284351873
-0.0030212863355458916,0.04632639047837033
-0.0016784924086366065,0.048844129091325246
-0.0050354772259098195,0.044647898069733724
-0.0003356984817273213,0.030045014114595252
0.0023498893720912484,0.010574502174410621
0.0050354772259098195,-0.01376363775082017
0.008392462043183033,-0.03608758678568704
0.009063859006637675,-0.051865415426871134
0.01376363775082017,-0.06932173647669183
0.015106431677729458,-0.09282063019760432
0.014435034714274816,-0.12370489051651787
0.012756542305638208,-0.14586099031052108
0.009735255970092317,-0.15223926146334021
0.0050354772259098195,-0.14384679942015716
0.007721065079728388,-0.12773327229724574
0.0050354772259098195,-0.11094834821087966
0.0023498893720912484,-0.09483482108796826
-0.0010070954451819635,-0.0844281681544213
-0.003692683299000534,-0.08207827878233005
-0.0030212863355458916,-0.0800640878919661
-0.0016784924086366065,-0.07284657053482871
0.0010070954451819635,-0.06428625925078202
-0.0003356984817273213,-0.06865033951323721
-0.0030212863355458916,-0.08274967574578469
0.0010070954451819635,-0.08879224841687647
0.004364080262455177,-0.0780498970016022
0.0050354772259098195,-0.05522240024414436
0.006378271152819104,-0.0323949034866865
0.010070954451819639,-0.01292439154650187
0.012420843823910887,0.010238803692683297
0.011749446860456245,0.03407339589532311
0.009063859006637675,0.0528725108720531
0.008728160524910353,0.05824368657969024
0.004364080262455177,0.05421530479896238
0.0016784924086366065,0.044647898069733724
0.002014190890363927,0.03105210955977722
0.003692683299000534,0.02668802929732204
0.0023498893720912484,0.03474479285877775
0.0023498893720912484,0.04800488288700694
0.0016784924086366065,0.05622949568932631
-0.0006713969634546426,0.052201113908598454
-0.0050354772259098195,0.042801556420233464
-0.0023498893720912484,0.028702220187685965
-0.003692683299000534,0.013931486991683832
-0.0030212863355458916,-0.0035248340581368735
-0.0016784924086366065,-0.026352330815594724
0.003692683299000534,-0.050690470740825506
0.007721065079728388,-0.07150377660791943
0.008728160524910353,-0.08946364538033112
0.007049668116273747,-0.11363393606469825
0.005706874189364461,-0.1398184176394293
0.007721065079728388,-0.1535820553902495
0.006378271152819104,-0.1468680857557031
0.007721065079728388,-0.12672617685206378
0.007049668116273747,-0.10893415732051576
