EMG Sensor 0,EMG Sensor 1
0.0,0.0
0.0,0.0
0.0,0.0
0.0,0.0
0.0,0.0
0.0,0.0
0.0,0.0
0.0,0.0
0.0,0.0
0.0,0.0
0.0,0.0
0.0,0.0
0.0,0.0
0.0,0.0
0.0,0.0
0.0,0.0
0.0,0.0
0.0,0.0
0.0,0.0
0.0,0.0
0.0,0.0
0.0,0.0
0.0,0.0
0.0,0.0
0.0,0.0
0.0,0.0
0.0,0.0
0.0,0.0
0.0,0.0
0.0,0.0
0.0,0.0
0.0,0.0
0.0,0.0
0.0,0.0
0.0,0.0
0.0,0.0
0.0,0.0
0.0,0.0
0.0,0.0
0.0,0.0
0.0,0.0
0.0,0.0
0.0,0.0
0.0,0.0
0.0,0.0
0.0,0.0
0.0,0.0
0.0,0.0
0.0,0.0
0.0,0.0
0.0,0.0
0.0,0.0
0.0,0.0
0.0,0.0
0.0,0.0
0.0,0.0
0.0,0.0
0.0,0.0
0.0,0.0
0.0,0.0
0.0,0.0
0.0,0.0
0.0,0.0
0.0,0.0
0.0,0.0
0.0,0.0
0.0,0.0
0.0,0.0
0.0,0.0
0.0,0.0
0.0,0.0
0.0,0.0
0.0,0.0
0.0,0.0
0.0,0.0
0.0,0.0
0.0,0.0
0.0,0.0
0.0,0.0
0.0,0.0
0.0,0.0
0.0,0.0
0.0,0.0
0.0,0.0
0.0,0.0
0.0,0.0
0.0,0.0
0.0,0.0
0.0,0.0
0.0,0.0
0.0,0.0
0.0,0.0
0.0,0.0
0.0,0.0
0.0,0.0
0.0,0.0
0.0,0.0
0.0,0.0
0.0,0.0
0.0,0.0
0.0,0.0
0.0,0.0
0.0,0.0
0.0,0.0
0.0,0.0
0.0,0.0
0.0,0.0
0.0,0.0
0.0,0.0
0.0,0.0
0.0,0.0
0.0,0.0
0.0,0.0
0.0,0.0
0.0,0.0
0.0,0.0
0.0,0.0
0.0,0.0
0.0,0.0
0.0,0.0
0.0,0.0
0.0,0.0
0.0,0.0
0.0,0.0
0.0,0.0
0.0,0.0
0.0,0.0
0.0,0.0
0.0,0.0
0.0,0.0
0.0,0.0
0.0,0.0
0.0,0.0
0.0,0.0
0.0,0.0
0.0,0.0
0.0,0.0
0.0,0.0
0.0,0.0
0.0,0.0
0.0,0.0
0.0,0.0
0.0,0.0
0.0,0.0
0.0,0.0
0.0,0.0
0.0,0.0
0.0,0.0
0.0,0.0
0.0,0.0
0.0,0.0
0.0,0.0
0.0,0.0
0.0,0.0
0.0,0.0
0.0,0.0
0.0,0.0
0.0,0.0
0.0,0.0
0.0,0.0
0.0,0.0
0.0,0.0
0.0,0.0
0.0,0.0
0.0,0.0
0.0,0.0
0.0,0.0
0.0,0.0
0.0,0.0
0.0,0.0
0.0,0.0
0.0,0.0
0.0,0.0
0.0,0.0
0.0,0.0
0.0,0.0
0.0,0.0
0.0,0.0
0.0,0.0
0.0,0.0
0.0,0.0
0.0,0.0
0.0,0.0
0.0,0.0
0.0,0.0
0.0,0.0
0.0,0.0
0.0,0.0
0.0,0.0
0.0,0.0
0.0,0.0
0.0,0.0
0.0,0.0
0.0,0.0
0.0,0.0
0.0,0.0
0.0,0.0
0.0,0.0
0.0,0.0
0.0,0.0
0.0,0.0
0.0,0.0
0.0,0.0
0.0,0.0
-0.009063859006637675,0.0
0.0050354772259098195,0.0
0.0016784924086366065,0.0
0.0023498893720912484,0.0
0.007721065079728388,0.0
0.009735255970092317,0.0
0.009063859006637675,0.0
0.007385366598001068,0.0
0.009063859006637675,0.0
0.006378271152819104,0.0
0.006378271152819104,0.0
0.0023498893720912484,0.0
0.0016784924086366065,0.0
0.003692683299000534,0.0
0.004699778744182497,0.0
-0.0010070954451819635,0.0
-0.0030212863355458916,0.0
-0.0010070954451819635,0.0
-0.007049668116273747,0.0
-0.0030212863355458916,0.0
-0.0003356984817273213,0.0
0.007721065079728388,0.0
0.0023498893720912484,0.0
-0.0003356984817273213,0.0
0.0023498893720912484,0.0
0.003692683299000534,0.0
0.0050354772259098195,0.0
0.003692683299000534,0.0
0.004364080262455177,0.0
0.003692683299000534,0.0
0.0050354772259098195,0.0
0.014770733196002136,0.0
0.0050354772259098195,0.0
-0.004028381780727854,0.0
-0.007049668116273747,0.0
-0.007049668116273747,0.0
-0.005706874189364461,0.0
-0.004364080262455177,0.0
-0.0010070954451819635,0.0
0.003356984817273213,0.0
0.0023498893720912484,0.0
0.0023498893720912484,0.0
0.004364080262455177,0.0
0.006378271152819104,0.0
0.006378271152819104,0.0
0.006378271152819104,0.0
0.007049668116273747,0.0
0.005706874189364461,0.0
0.006042572671091783,0.0
0.003692683299000534,0.0
0.008392462043183033,0.0
0.007721065079728388,0.0
0.007385366598001068,0.0
0.0023498893720912484,0.0
-0.0010070954451819635,0.0
-0.0003356984817273213,0.0
0.0006713969634546426,0.0
0.0030212863355458916,0.0
0.0050354772259098195,0.0
0.005706874189364461,0.0
0.007721065079728388,0.0
0.006378271152819104,0.0
0.0023498893720912484,0.0
0.004028381780727854,0.0
0.006042572671091783,0.0
0.003692683299000534,0.0
0.0016784924086366065,0.0
-0.0003356984817273213,0.0
-0.0003356984817273213,0.0
0.003692683299000534,0.0
0.006378271152819104,0.0
0.004364080262455177,0.0
0.004364080262455177,0.0
0.004364080262455177,0.0
0.0010070954451819635,0.0
0.0010070954451819635,0.0
-0.0003356984817273213,0.0
0.0053711757076371405,0.0
0.007049668116273747,0.0
0.005706874189364461,0.0
0.007721065079728388,0.0
-0.0003356984817273213,0.0
0.002014190890363927,0.0
0.0050354772259098195,0.0
0.0050354772259098195,0.0
0.006378271152819104,0.0
0.007721065079728388,0.0
0.0050354772259098195,0.0
0.0050354772259098195,0.0
0.0050354772259098195,0.0
0.0016784924086366065,0.0
-0.0016784924086366065,0.0
0.0050354772259098195,0.0
0.004364080262455177,0.0
0.0010070954451819635,0.0
-0.0003356984817273213,0.0
-0.0030212863355458916,0.0
-0.0010070954451819635,0.0
0.0016784924086366065,0.0
0.003692683299000534,0.0
0.0030212863355458916,0.0
-0.0030212863355458916,0.0
-0.0003356984817273213,0.0
0.0010070954451819635,0.0
0.0023498893720912484,0.0
-0.0003356984817273213,0.0
-0.0003356984817273213,0.0
0.0050354772259098195,0.0
0.004364080262455177,0.0
0.0050354772259098195,0.0
0.007049668116273747,0.0
0.0050354772259098195,0.0
0.0006713969634546426,0.0
-0.0030212863355458916,0.0
0.0010070954451819635,0.0
0.0050354772259098195,0.0
0.0010070954451819635,0.0
0.0050354772259098195,0.0
0.003692683299000534,0.0
0.0016784924086366065,0.0
0.0023498893720912484,0.0
0.0010070954451819635,0.0
-0.0016784924086366065,0.0
-0.004364080262455177,0.0
-0.005706874189364461,0.0
0.0010070954451819635,0.0
0.0016784924086366065,0.0
0.0016784924086366065,0.0
0.003356984817273213,0.0
0.0050354772259098195,0.0
0.007721065079728388,0.0
0.009063859006637675,0.0
0.012756542305638208,0.0
0.0157778286411841,0.0
0.017792019531548024,0.0
0.016449225604638743,0.0
0.012420843823910887,0.0
0.007721065079728388,0.0
0.006378271152819104,0.0
0.0023498893720912484,0.0
0.0010070954451819635,0.0
0.0050354772259098195,0.0
0.0030212863355458916,0.0
0.0003356984817273213,0.0
-0.0016784924086366065,0.0
0.0010070954451819635,0.0
-0.0023498893720912484,0.0
-0.003356984817273213,0.0
-0.0010070954451819635,0.0
-0.0003356984817273213,0.0
-0.0010070954451819635,0.0
0.004364080262455177,0.0
-0.0003356984817273213,0.0
-0.0003356984817273213,0.0
0.007721065079728388,0.0
0.007049668116273747,0.0
0.006378271152819104,0.0
0.0023498893720912484,0.0
0.003356984817273213,0.0
-0.0010070954451819635,0.0
-0.0010070954451819635,0.0
0.0010070954451819635,0.0
0.0016784924086366065,0.0
-0.0010070954451819635,0.0
0.0003356984817273213,0.0
0.0016784924086366065,0.0
0.0023498893720912484,0.0
0.0023498893720912484,0.0
0.007721065079728388,0.0
0.009063859006637675,0.0
0.006378271152819104,0.0
0.0050354772259098195,0.0
0.0050354772259098195,0.0
0.009063859006637675,0.0
0.011413748378728923,0.0
0.011749446860456245,0.0
0.005706874189364461,0.0
0.004364080262455177,0.0
0.0030212863355458916,0.0
0.0010070954451819635,0.0
-0.0010070954451819635,0.0
-0.008392462043183033,0.0
-0.009063859006637675,0.0
-0.008392462043183033,0.0
-0.005706874189364461,0.0
-0.004364080262455177,0.0
-0.0010070954451819635,0.0
0.0010070954451819635,0.0
0.0023498893720912484,0.0
0.004028381780727854,0.0
0.0050354772259098195,0.0
0.007721065079728388,0.0
0.010070954451819639,0.0
0.0050354772259098195,0.0
0.009063859006637675,0.0
0.007049668116273747,0.0
0.007049668116273747,0.0
0.007721065079728388,0.0
0.007049668116273747,0.0
0.003692683299000534,0.0
0.0010070954451819635,0.0
0.0023498893720912484,0.0
0.0030212863355458916,0.0
0.003692683299000534,0.0
0.0023498893720912484,0.0
0.0006713969634546426,0.0
0.004364080262455177,0.0
0.0030212863355458916,0.0
0.004364080262455177,0.0
-0.0003356984817273213,0.0
-0.003356984817273213,0.0
0.0023498893720912484,0.0
0.006378271152819104,-0.06294346532387274
0.009063859006637675,-0.05522240024414436
0.004028381780727854,-0.051529716945143814
0.0023498893720912484,-0.04750133516441596
0.0023498893720912484,-0.0426337071793698
0.007721065079728388,-0.03910887312123293
0.010406652933546959,-0.03843747615777828
0.007721065079728388,-0.04061951628900587
0.004028381780727854,-0.04313725490196078
0.004028381780727854,-0.041123064011596856
-0.0030212863355458916,-0.03843747615777828
-0.004364080262455177,-0.03910887312123293
0.0003356984817273213,-0.03978027008468757
0.0023498893720912484,-0.04061951628900587
-0.0003356984817273213,-0.041794460975051496
-0.0003356984817273213,-0.03978027008468757
0.003356984817273213,-0.03508049134050507
-0.0006713969634546426,-0.033066300450141146
-0.006713969634546426,-0.029877164873731592
0.0010070954451819635,-0.024338139925230793
0.004364080262455177,-0.019302662699320974
0.0050354772259098195,-0.017624170290684367
0.005706874189364461,-0.02366674296177615
0.007721065079728388,-0.030716411078049892
0.011749446860456245,-0.03105210955977722
0.0050354772259098195,-0.026352330815594724
0.0023498893720912484,-0.02349889372091249
0.002014190890363927,-0.02366674296177615
-0.0010070954451819635,-0.024338139925230793
0.0010070954451819635,-0.0260166323338674
0.0030212863355458916,-0.029709315632867935
0.007385366598001068,-0.033401998931868467
0.007049668116273747,-0.03810177767605096
0.003692683299000534,-0.0426337071793698
0.0023498893720912484,-0.04599069199664301
0.0023498893720912484,-0.04649423971923399
0.005706874189364461,-0.04917982757305257
0.003692683299000534,-0.05119401846341649
0.004364080262455177,-0.049851224536507206
0.003356984817273213,-0.04750133516441596
0.003692683299000534,-0.048508430609597926
0.0050354772259098195,-0.048508430609597926
0.003692683299000534,-0.04716563668268864
0.0050354772259098195,-0.04766918440527961
0.003692683299000534,-0.048508430609597926
0.005706874189364461,-0.0481727321278706
0.009735255970092317,-0.044815747310597384
0.010406652933546959,-0.04078736552986953
0.009735255970092317,-0.03776607919432364
0.012420843823910887,-0.03810177767605096
0.007721065079728388,-0.04078736552986953
0.007721065079728388,-0.040451667048142216
0.009063859006637675,-0.03776607919432364
0.007721065079728388,-0.03373769741359579
-0.004364080262455177,-0.029709315632867935
-0.01376363775082017,-0.026352330815594724
-0.01376363775082017,-0.02366674296177615
-0.007721065079728388,-0.020309758144502935
-0.005706874189364461,-0.017624170290684367
-0.0010070954451819635,-0.01695277332722972
-0.0023498893720912484,-0.019302662699320974
-0.004364080262455177,-0.023834592202639806
0.0003356984817273213,-0.027023727779049357
0.003356984817273213,-0.027695124742504008
0.006378271152819104,-0.028702220187685965
0.003692683299000534,-0.03121995880064088
0.007385366598001068,-0.029709315632867935
0.010406652933546959,-0.026352330815594724
0.009735255970092317,-0.02668802929732204
0.013092240787365528,-0.027695124742504008
0.010070954451819639,-0.026352330815594724
0.003692683299000534,-0.024338139925230793
0.003692683299000534,-0.025009536888685433
0.0023498893720912484,-0.03138780804150454
0.0016784924086366065,-0.03978027008468757
-0.0016784924086366065,-0.04750133516441596
-0.0010070954451819635,-0.050186923018234526
-0.0010070954451819635,-0.05119401846341649
0.0010070954451819635,-0.050690470740825506
0.004364080262455177,-0.048844129091325246
0.006378271152819104,-0.0473334859235523
0.0016784924086366065,-0.04682993820096131
-0.0003356984817273213,-0.04917982757305257
-0.0030212863355458916,-0.0481727321278706
-0.0030212863355458916,-0.04515144579232471
0.004364080262455177,-0.0426337071793698
0.006042572671091783,-0.03843747615777828
0.007049668116273747,-0.033401998931868467
0.003692683299000534,-0.03105210955977722
-0.0003356984817273213,-0.032730601968413826
0.0003356984817273213,-0.037262531471732654
0.0010070954451819635,-0.042465857938506144
0.004699778744182497,-0.043808651865415424
0.0023498893720912484,-0.03978027008468757
-0.0016784924086366065,-0.0323949034866865
-0.0003356984817273213,-0.025680933852140077
0.0050354772259098195,-0.021988250553139542
0.0050354772259098195,-0.021652552071412222
-0.0003356984817273213,-0.019638361181048294
0.0023498893720912484,-0.01829556725413901
0.0010070954451819635,-0.023834592202639806
0.0003356984817273213,-0.02937361715114061
0.0023498893720912484,-0.029709315632867935
0.004699778744182497,-0.02584878309300374
0.003692683299000534,-0.020645456626230255
0.0050354772259098195,-0.01829556725413901
0.009063859006637675,-0.01695277332722972
0.007721065079728388,-0.01896696421759365
0.008728160524910353,-0.021652552071412222
0.009063859006637675,-0.024338139925230793
0.007721065079728388,-0.024338139925230793
0.011413748378728923,-0.022995345998321506
0.009735255970092317,-0.022995345998321506
0.006378271152819104,-0.028702220187685965
0.007721065079728388,-0.037094682230869
0.004364080262455177,-0.04313725490196078
0.0050354772259098195,-0.0481727321278706
0.0016784924086366065,-0.050522621499961846
-0.0003356984817273213,-0.05119401846341649
-0.0016784924086366065,-0.0520332646677348
-0.0016784924086366065,-0.053208209353780414
0.0003356984817273213,-0.054551003280689715
0.0016784924086366065,-0.056900892652780956
0.003692683299000534,-0.05824368657969024
0.006378271152819104,-0.05421530479896238
0.006378271152819104,-0.044815747310597384
0.0023498893720912484,-0.03843747615777828
0.0010070954451819635,-0.03675898374914168
-0.002014190890363927,-0.0387731746395056
-0.006378271152819104,-0.04313725490196078
-0.008392462043183033,-0.04515144579232471
-0.0016784924086366065,-0.043808651865415424
-0.0010070954451819635,-0.042801556420233464
0.0030212863355458916,-0.03944457160296025
0.0023498893720912484,-0.036423285267414354
0.0023498893720912484,-0.029709315632867935
0.0050354772259098195,-0.02366674296177615
0.0023498893720912484,-0.020981155107957578
-0.0003356984817273213,-0.020981155107957578
0.0023498893720912484,-0.025177386129549097
0.0050354772259098195,-0.029709315632867935
0.003692683299000534,-0.0323949034866865
0.0030212863355458916,-0.03172350652323186
0.007721065079728388,-0.029709315632867935
0.0050354772259098195,-0.02668802929732204
0.0023498893720912484,-0.025009536888685433
-0.0016784924086366065,-0.02668802929732204
-0.0003356984817273213,-0.030045014114595252
0.003356984817273213,-0.03440909437705043
0.004364080262455177,-0.03508049134050507
0.005706874189364461,-0.03172350652323186
0.006042572671091783,-0.03373769741359579
0.003356984817273213,-0.03978027008468757
0.0023498893720912484,-0.04716563668268864
0.0016784924086366065,-0.05253681239032577
0.0023498893720912484,-0.054047455558098714
0.004364080262455177,-0.050522621499961846
0.006378271152819104,-0.043472953383688104
0.0023498893720912484,-0.03978027008468757
0.004364080262455177,-0.04313725490196078
0.0023498893720912484,-0.04716563668268864
-0.006378271152819104,-0.04917982757305257
-0.009063859006637675,-0.048676279850461586
-0.003692683299000534,-0.04649423971923399
0.0003356984817273213,-0.04515144579232471
0.0023498893720912484,-0.041794460975051496
0.006713969634546426,-0.03994811932555123
0.009063859006637675,-0.03776607919432364
0.007049668116273747,-0.03910887312123293
0.007049668116273747,-0.041794460975051496
0.008392462043183033,-0.04213015945677882
0.003692683299000534,-0.041794460975051496
0.005706874189364461,-0.03944457160296025
0.006378271152819104,-0.035751888303959714
0.006378271152819104,-0.0323949034866865
0.007049668116273747,-0.027695124742504008
0.007049668116273747,-0.022995345998321506
0.003692683299000534,-0.020645456626230255
-0.0006713969634546426,-0.022995345998321506
0.006378271152819104,-0.026352330815594724
0.005706874189364461,-0.029037918669413288
0.003692683299000534,-0.028366521705958644
0.0030212863355458916,-0.025009536888685433
0.004364080262455177,-0.022323949034866862
0.0003356984817273213,-0.019974059662775615
-0.0023498893720912484,-0.022323949034866862
0.0023498893720912484,-0.027695124742504008
0.004364080262455177,-0.030380712596322572
0.008392462043183033,-0.025680933852140077
0.004364080262455177,-0.01829556725413901
0.002014190890363927,-0.019302662699320974
0.007721065079728388,-0.027862973983367664
0.007385366598001068,-0.037094682230869
0.006042572671091783,-0.041794460975051496
0.006378271152819104,-0.04313725490196078
0.008728160524910353,-0.04515144579232471
0.005706874189364461,-0.05085831998168917
0.0016784924086366065,-0.05790798809796292
-0.0010070954451819635,-0.06260776684214542
-0.0030212863355458916,-0.059250782024872196
-0.004364080262455177,-0.05253681239032577
-0.0023498893720912484,-0.048508430609597926
-0.0003356984817273213,-0.04615854123750667
0.0003356984817273213,-0.04515144579232471
0.0016784924086366065,-0.042801556420233464
0.0016784924086366065,-0.0387731746395056
0.0050354772259098195,-0.035248340581368734
0.0050354772259098195,-0.035751888303959714
0.009063859006637675,-0.03910887312123293
0.0050354772259098195,-0.041794460975051496
0.003692683299000534,-0.04682993820096131
-0.0003356984817273213,-0.04582284275577936
0.0023498893720912484,-0.041794460975051496
0.0050354772259098195,-0.035416189822232394
0.004364080262455177,-0.02752727550164034
0.006378271152819104,-0.020309758144502935
0.009063859006637675,-0.0157778286411841
0.009735255970092317,-0.016617074845502403
0.010406652933546959,-0.020309758144502935
0.009063859006637675,-0.024673838406958113
0.004699778744182497,-0.025009536888685433
0.0003356984817273213,-0.022995345998321506
-0.0010070954451819635,-0.021149004348821242
0.0010070954451819635,-0.022323949034866862
-0.0003356984817273213,-0.024338139925230793
-0.003692683299000534,-0.023163195239185166
-0.003692683299000534,-0.02265964751659419
0.003692683299000534,-0.025009536888685433
0.003692683299000534,-0.030380712596322572
-0.0003356984817273213,-0.03508049134050507
0.002014190890363927,-0.03910887312123293
0.0030212863355458916,-0.03910887312123293
0.008392462043183033,-0.03743038071259632
0.008392462043183033,-0.03910887312123293
0.0010070954451819635,-0.044480048828870064
0.0010070954451819635,-0.051865415426871134
0.003692683299000534,-0.05488670176241703
0.0050354772259098195,-0.05387960631723506
0.003692683299000534,-0.050186923018234526
0.0023498893720912484,-0.048508430609597926
0.003692683299000534,-0.048508430609597926
0.003692683299000534,-0.04649423971923399
0.003692683299000534,-0.04750133516441596
-0.0016784924086366065,-0.04917982757305257
0.002014190890363927,-0.048508430609597926
-0.0003356984817273213,-0.044815747310597384
-0.0003356984817273213,-0.03978027008468757
0.0023498893720912484,-0.037094682230869
0.002014190890363927,-0.035751888303959714
-0.0003356984817273213,-0.03944457160296025
-0.0003356984817273213,-0.04548714427405204
-0.0030212863355458916,-0.044480048828870064
0.0013427939269092851,-0.03608758678568704
-0.0030212863355458916,-0.027359426260776684
-0.0030212863355458916,-0.021652552071412222
-0.0003356984817273213,-0.01829556725413901
0.003692683299000534,-0.017624170290684367
0.0050354772259098195,-0.017959868772411687
0.006378271152819104,-0.019974059662775615
0.006378271152819104,-0.025680933852140077
0.0023498893720912484,-0.03205920500495917
0.003692683299000534,-0.03407339589532311
-0.003356984817273213,-0.03105210955977722
-0.0030212863355458916,-0.024673838406958113
-0.0003356984817273213,-0.020645456626230255
0.0010070954451819635,-0.020309758144502935
0.0030212863355458916,-0.022995345998321506
0.0050354772259098195,-0.028030823224231328
0.003356984817273213,-0.03138780804150454
0.004699778744182497,-0.032730601968413826
0.007721065079728388,-0.032730601968413826
0.0050354772259098195,-0.03172350652323186
0.0010070954451819635,-0.0323949034866865
0.0050354772259098195,-0.037094682230869
0.006378271152819104,-0.044647898069733724
0.0050354772259098195,-0.05119401846341649
0.007049668116273747,-0.05387960631723506
0.007385366598001068,-0.0528725108720531
0.0050354772259098195,-0.049515526054779886
0.003692683299000534,-0.044815747310597384
0.009063859006637675,-0.041123064011596856
0.006378271152819104,-0.0387731746395056
0.009735255970092317,-0.03776607919432364
0.009063859006637675,-0.040451667048142216
0.006378271152819104,-0.040451667048142216
0.0050354772259098195,-0.037094682230869
0.0016784924086366065,-0.03373769741359579
-0.0030212863355458916,-0.033066300450141146
-0.005706874189364461,-0.036423285267414354
-0.0050354772259098195,-0.03843747615777828
-0.0016784924086366065,-0.025009536888685433
0.003692683299000534,0.0025177386129549098
0.0003356984817273213,0.017959868772411687
0.002014190890363927,0.01527428091859312
0.0050354772259098195,0.005874723430228122
0.006378271152819104,0.001846341649500267
0.0023498893720912484,0.003189135576409552
0.010406652933546959,0.0021820401312275884
0.011749446860456245,-0.0010070954451819635
0.012420843823910887,-0.008896009765774012
0.011749446860456245,-0.016617074845502403
0.007721065079728388,-0.019806210421911954
0.0006713969634546426,-0.017624170290684367
-0.0030212863355458916,-0.014938582436865796
-0.003692683299000534,-0.017624170290684367
-0.0023498893720912484,-0.0260166323338674
-0.0010070954451819635,-0.03810177767605096
0.0010070954451819635,-0.04313725490196078
0.0050354772259098195,-0.042801556420233464
0.008392462043183033,-0.043808651865415424
0.009063859006637675,-0.048508430609597926
0.004699778744182497,-0.05421530479896238
0.0010070954451819635,-0.05992217898832684
0.0010070954451819635,-0.06730754558632791
0.0010070954451819635,-0.07351796749828336
0.0030212863355458916,-0.07637140459296558
0.0016784924086366065,-0.07536430914778362
-0.0016784924086366065,-0.0703288319218738
-0.0003356984817273213,-0.06596475165941862
0.0023498893720912484,-0.06462195773250935
0.006378271152819104,-0.0639505607690547
0.0030212863355458916,-0.060761425192645144
0.0050354772259098195,-0.055390249485008015
0.003356984817273213,-0.05354390783550774
0.0016784924086366065,-0.05488670176241703
-0.0003356984817273213,-0.05589379720759898
-0.0016784924086366065,-0.057572289616235596
0.0050354772259098195,-0.05790798809796292
-0.0003356984817273213,-0.054551003280689715
-0.0016784924086366065,-0.049851224536507206
0.0023498893720912484,-0.04750133516441596
0.0023498893720912484,-0.050522621499961846
0.0010070954451819635,-0.049851224536507206
0.002014190890363927,-0.04515144579232471
0.005706874189364461,-0.03743038071259632
0.008392462043183033,-0.029205767910276948
0.006378271152819104,-0.025177386129549097
0.007721065079728388,-0.027359426260776684
0.005706874189364461,-0.033066300450141146
0.0050354772259098195,-0.035751888303959714
0.003692683299000534,-0.03910887312123293
0.0030212863355458916,-0.04078736552986953
0.007049668116273747,-0.03776607919432364
0.007049668116273747,-0.030045014114595252
0.003692683299000534,-0.024338139925230793
0.005706874189364461,-0.02668802929732204
0.0023498893720912484,-0.03256275272755016
-0.0003356984817273213,-0.036423285267414354
0.003692683299000534,-0.03440909437705043
0.0016784924086366065,-0.03172350652323186
-0.004364080262455177,-0.032730601968413826
-0.007721065079728388,-0.037094682230869
-0.008392462043183033,-0.041794460975051496
-0.0030212863355458916,-0.04783703364614328
-0.0003356984817273213,-0.049851224536507206
0.0023498893720912484,-0.051865415426871134
0.006378271152819104,-0.05589379720759898
0.008392462043183033,-0.05790798809796292
0.007049668116273747,-0.05622949568932631
0.007049668116273747,-0.04716563668268864
0.006378271152819104,-0.03743038071259632
0.007721065079728388,-0.03373769741359579
0.007721065079728388,-0.033066300450141146
0.0050354772259098195,-0.03373769741359579
0.0023498893720912484,-0.03508049134050507
0.004364080262455177,-0.0387731746395056
0.0023498893720912484,-0.040451667048142216
0.007385366598001068,-0.03776607919432364
0.009735255970092317,-0.037094682230869
0.009735255970092317,-0.03776607919432364
0.004699778744182497,-0.03608758678568704
0.0023498893720912484,-0.033066300450141146
0.0003356984817273213,-0.03172350652323186
0.003692683299000534,-0.028702220187685965
0.0010070954451819635,-0.022995345998321506
-0.0010070954451819635,-0.018631265735866327
-0.0003356984817273213,-0.017120622568093383
0.003692683299000534,-0.020309758144502935
0.004699778744182497,-0.0260166323338674
0.0023498893720912484,-0.029709315632867935
0.003692683299000534,-0.025345235370412753
0.003692683299000534,-0.01560997940032044
-0.003692683299000534,-0.010910200656137941
-0.004364080262455177,-0.014267185473411156
-0.0016784924086366065,-0.020645456626230255
-0.0030212863355458916,-0.026352330815594724
-0.005706874189364461,-0.027023727779049357
-0.004364080262455177,-0.026352330815594724
0.0023498893720912484,-0.030380712596322572
0.007721065079728388,-0.03390554665445944
0.0023498893720912484,-0.03776607919432364
0.0016784924086366065,-0.04011596856641489
0.0010070954451819635,-0.03910887312123293
-0.003692683299000534,-0.03776607919432364
0.0010070954451819635,-0.03810177767605096
0.007049668116273747,-0.04414435034714275
0.006378271152819104,-0.050690470740825506
0.007049668116273747,-0.05253681239032577
0.008392462043183033,-0.04649423971923399
0.009063859006637675,-0.03910887312123293
0.007049668116273747,-0.03608758678568704
0.009063859006637675,-0.03860532539864195
0.006378271152819104,-0.04011596856641489
0.007049668116273747,-0.03843747615777828
0.008728160524910353,-0.0387731746395056
0.007721065079728388,-0.04078736552986953
0.007721065079728388,-0.042465857938506144
0.007721065079728388,-0.040451667048142216
0.0050354772259098195,-0.03910887312123293
0.005706874189364461,-0.040451667048142216
0.003692683299000534,-0.041123064011596856
0.0030212863355458916,-0.037094682230869
0.0023498893720912484,-0.030380712596322572
0.0030212863355458916,-0.021988250553139542
0.004699778744182497,-0.01695277332722972
0.0016784924086366065,-0.01560997940032044
0.0023498893720912484,-0.019470511940184634
0.0050354772259098195,-0.025009536888685433
0.0050354772259098195,-0.02668802929732204
0.004364080262455177,-0.028366521705958644
-0.0010070954451819635,-0.033401998931868467
-0.0003356984817273213,-0.0323949034866865
0.0006713969634546426,-0.028702220187685965
-0.003356984817273213,-0.024673838406958113
0.0010070954451819635,-0.022323949034866862
0.005706874189364461,-0.021820401312275882
0.003692683299000534,-0.022995345998321506
0.004364080262455177,-0.02887006942854963
0.0016784924086366065,-0.036423285267414354
0.0003356984817273213,-0.04313725490196078
-0.0010070954451819635,-0.043976501106279084
-0.0030212863355458916,-0.041962310215915156
-0.003692683299000534,-0.04313725490196078
0.0010070954451819635,-0.04615854123750667
0.0010070954451819635,-0.05253681239032577
-0.0003356984817273213,-0.05589379720759898
-0.0016784924086366065,-0.05589379720759898
-0.0030212863355458916,-0.0520332646677348
-0.0003356984817273213,-0.04515144579232471
0.007049668116273747,-0.03860532539864195
0.007721065079728388,-0.035416189822232394
0.004364080262455177,-0.0387731746395056
0.006378271152819104,-0.04313725490196078
0.011749446860456245,-0.04531929503318838
0.013092240787365528,-0.043808651865415424
0.014435034714274816,-0.04129091325246051
0.012756542305638208,-0.03978027008468757
0.007721065079728388,-0.040451667048142216
0.003692683299000534,-0.03776607919432364
-0.0010070954451819635,-0.03205920500495917
-0.007049668116273747,-0.026352330815594724
-0.007385366598001068,-0.02265964751659419
-0.0030212863355458916,-0.02366674296177615
-0.0010070954451819635,-0.024338139925230793
-0.0023498893720912484,-0.02366674296177615
-0.002014190890363927,-0.021652552071412222
-0.0003356984817273213,-0.022323949034866862
0.002014190890363927,-0.022491798275730522
0.0023498893720912484,-0.021652552071412222
0.0003356984817273213,-0.022995345998321506
0.004364080262455177,-0.025345235370412753
0.004364080262455177,-0.027023727779049357
0.007721065079728388,-0.026352330815594724
0.011078049897001601,-0.025680933852140077
0.013092240787365528,-0.02584878309300374
0.011749446860456245,-0.027023727779049357
0.013092240787365528,-0.03121995880064088
0.012420843823910887,-0.035416189822232394
0.012420843823910887,-0.03776607919432364
0.013092240787365528,-0.03944457160296025
0.010406652933546959,-0.040283817807278556
0.004699778744182497,-0.041794460975051496
-0.0003356984817273213,-0.04515144579232471
-0.0010070954451819635,-0.05253681239032577
-0.007049668116273747,-0.060090028229190504
-0.011749446860456245,-0.06294346532387274
-0.011078049897001601,-0.06025787747005417
-0.011749446860456245,-0.050522621499961846
-0.007049668116273747,-0.04145876249332417
-0.0010070954451819635,-0.03843747615777828
0.0023498893720912484,-0.03910887312123293
0.0050354772259098195,-0.03910887312123293
0.006378271152819104,-0.03910887312123293
0.006378271152819104,-0.041123064011596856
0.004364080262455177,-0.04716563668268864
0.003356984817273213,-0.050186923018234526
0.003356984817273213,-0.04917982757305257
0.0050354772259098195,-0.04313725490196078
0.003692683299000534,-0.036423285267414354
0.007049668116273747,-0.03172350652323186
0.006378271152819104,-0.028366521705958644
0.0030212863355458916,-0.02652018005645838
0.0010070954451819635,-0.025680933852140077
0.0050354772259098195,-0.02349889372091249
0.003692683299000534,-0.018631265735866327
0.0050354772259098195,-0.014938582436865796
0.0016784924086366065,-0.01527428091859312
-0.0006713969634546426,-0.020981155107957578
0.003356984817273213,-0.030380712596322572
0.006042572671091783,-0.036423285267414354
0.0010070954451819635,-0.035751888303959714
0.0016784924086366065,-0.030380712596322572
-0.0003356984817273213,-0.025009536888685433
0.0016784924086366065,-0.022995345998321506
0.004364080262455177,-0.02366674296177615
0.004364080262455177,-0.02937361715114061
0.006378271152819104,-0.03508049134050507
0.007721065079728388,-0.03843747615777828
0.007721065079728388,-0.03944457160296025
0.010406652933546959,-0.03810177767605096
0.010070954451819639,-0.03743038071259632
0.007721065079728388,-0.03944457160296025
0.009063859006637675,-0.044480048828870064
0.007049668116273747,-0.0473334859235523
0.0016784924086366065,-0.048508430609597926
0.0023498893720912484,-0.04783703364614328
0.0010070954451819635,-0.04682993820096131
-0.0003356984817273213,-0.044480048828870064
0.0016784924086366065,-0.043808651865415424
0.0023498893720912484,-0.04213015945677882
0.002014190890363927,-0.03978027008468757
0.003692683299000534,-0.03776607919432364
0.003692683299000534,-0.03373769741359579
0.0050354772259098195,-0.033066300450141146
0.006378271152819104,-0.037094682230869
0.008392462043183033,-0.04145876249332417
0.012420843823910887,-0.04145876249332417
0.009063859006637675,-0.03810177767605096
0.007721065079728388,-0.03508049134050507
0.005706874189364461,-0.033401998931868467
0.008392462043183033,-0.03508049134050507
0.009735255970092317,-0.035416189822232394
0.011078049897001601,-0.0323949034866865
0.006378271152819104,-0.025009536888685433
0.0016784924086366065,-0.019638361181048294
-0.0003356984817273213,-0.020309758144502935
-0.0006713969634546426,-0.022323949034866862
0.0003356984817273213,-0.024673838406958113
0.0006713969634546426,-0.027695124742504008
-0.0050354772259098195,-0.028030823224231328
-0.007049668116273747,-0.025680933852140077
-0.0030212863355458916,-0.020981155107957578
-0.0003356984817273213,-0.019638361181048294
-0.0003356984817273213,-0.022491798275730522
0.0023498893720912484,-0.024505989166094453
0.0003356984817273213,-0.0260166323338674
0.0023498893720912484,-0.028366521705958644
0.007721065079728388,-0.03373769741359579
0.003692683299000534,-0.043808651865415424
-0.0016784924086366065,-0.050522621499961846
0.0010070954451819635,-0.0520332646677348
-0.0016784924086366065,-0.0528725108720531
-0.002014190890363927,-0.054551003280689715
0.0023498893720912484,-0.05589379720759898
0.005706874189364461,-0.054551003280689715
0.007721065079728388,-0.05354390783550774
0.0010070954451819635,-0.051865415426871134
-0.0023498893720912484,-0.049851224536507206
0.003692683299000534,-0.044480048828870064
0.006378271152819104,-0.04011596856641489
0.0050354772259098195,-0.0387731746395056
0.0023498893720912484,-0.03944457160296025
0.009063859006637675,-0.041794460975051496
0.007721065079728388,-0.041794460975051496
0.0023498893720912484,-0.04078736552986953
0.0023498893720912484,-0.040451667048142216
0.0023498893720912484,-0.035751888303959714
0.0030212863355458916,-0.03138780804150454
0.0023498893720912484,-0.030045014114595252
0.0006713969634546426,-0.03105210955977722
0.0030212863355458916,-0.030380712596322572
0.007049668116273747,-0.026352330815594724
0.009063859006637675,-0.019974059662775615
0.0023498893720912484,-0.013931486991683832
-0.0016784924086366065,-0.012252994583047227
0.0010070954451819635,-0.01628137636377508
0.0010070954451819635,-0.020981155107957578
-0.0016784924086366065,-0.02333104448004883
-0.0016784924086366065,-0.023834592202639806
-0.0003356984817273213,-0.0260166323338674
0.0016784924086366065,-0.030045014114595252
0.0010070954451819635,-0.030380712596322572
0.0010070954451819635,-0.0260166323338674
0.004364080262455177,-0.019638361181048294
0.007721065079728388,-0.01695277332722972
0.011078049897001601,-0.020309758144502935
0.011078049897001601,-0.027023727779049357
0.011749446860456245,-0.03508049134050507
0.011749446860456245,-0.04011596856641489
0.011078049897001601,-0.041794460975051496
0.008392462043183033,-0.041794460975051496
0.010406652933546959,-0.044480048828870064
0.012420843823910887,-0.050186923018234526
0.010406652933546959,-0.05387960631723506
0.007049668116273747,-0.05522240024414436
0.0030212863355458916,-0.05421530479896238
0.008392462043183033,-0.05253681239032577
0.009735255970092317,-0.049347676813916226
0.003356984817273213,-0.043472953383688104
-0.0010070954451819635,-0.03910887312123293
-0.0010070954451819635,-0.03675898374914168
-0.003356984817273213,-0.03810177767605096
-0.004699778744182497,-0.041794460975051496
-0.0030212863355458916,-0.04582284275577936
-0.0013427939269092851,-0.043808651865415424
-0.0003356984817273213,-0.0387731746395056
0.003692683299000534,-0.03675898374914168
0.004364080262455177,-0.035751888303959714
0.0050354772259098195,-0.032730601968413826
0.004364080262455177,-0.030380712596322572
0.0050354772259098195,-0.02668802929732204
0.0010070954451819635,-0.02400244144350347
0.0010070954451819635,-0.02584878309300374
0.009735255970092317,-0.027023727779049357
0.007721065079728388,-0.0260166323338674
0.008392462043183033,-0.025680933852140077
0.009399557488364994,-0.027023727779049357
0.0050354772259098195,-0.029709315632867935
0.0023498893720912484,-0.03105210955977722
0.002014190890363927,-0.03172350652323186
-0.0016784924086366065,-0.030380712596322572
0.0030212863355458916,-0.027695124742504008
0.003692683299000534,-0.024338139925230793
-0.0003356984817273213,-0.0213168535896849
0.0023498893720912484,-0.02366674296177615
0.004364080262455177,-0.03105210955977722
-0.0003356984817273213,-0.03944457160296025
-0.0003356984817273213,-0.043305104142824444
0.0023498893720912484,-0.04414435034714275
0.004364080262455177,-0.04515144579232471
0.007385366598001068,-0.04716563668268864
0.006378271152819104,-0.05119401846341649
0.009063859006637675,-0.05387960631723506
0.007721065079728388,-0.05656519417105363
0.003356984817273213,-0.05656519417105363
0.0050354772259098195,-0.05656519417105363
0.008728160524910353,-0.0528725108720531
0.006042572671091783,-0.04582284275577936
0.005706874189364461,-0.03994811932555123
0.0023498893720912484,-0.03810177767605096
0.0010070954451819635,-0.03843747615777828
0.002014190890363927,-0.03944457160296025
0.0003356984817273213,-0.03944457160296025
0.0003356984817273213,-0.04145876249332417
0.0023498893720912484,-0.04582284275577936
-0.0016784924086366065,-0.04800488288700694
-0.007049668116273747,-0.044647898069733724
-0.007049668116273747,-0.036423285267414354
-0.004364080262455177,-0.029709315632867935
-0.0003356984817273213,-0.027695124742504008
0.0016784924086366065,-0.0260166323338674
0.0050354772259098195,-0.024505989166094453
0.011749446860456245,-0.022491798275730522
0.008728160524910353,-0.021988250553139542
0.006378271152819104,-0.021652552071412222
0.011413748378728923,-0.020981155107957578
0.010406652933546959,-0.02333104448004883
0.009063859006637675,-0.024673838406958113
0.003356984817273213,-0.025680933852140077
0.0030212863355458916,-0.024505989166094453
0.0050354772259098195,-0.024505989166094453
0.0050354772259098195,-0.024505989166094453
0.0010070954451819635,-0.020981155107957578
-0.0003356984817273213,-0.01628137636377508
0.0050354772259098195,-0.01628137636377508
0.009063859006637675,-0.024338139925230793
0.009735255970092317,-0.03508049134050507
0.006378271152819104,-0.041794460975051496
0.003356984817273213,-0.044815747310597384
0.0023498893720912484,-0.043808651865415424
-0.0010070954451819635,-0.044480048828870064
-0.0003356984817273213,-0.04783703364614328
0.0023498893720912484,-0.050522621499961846
0.006378271152819104,-0.050019073777370866
0.005706874189364461,-0.0473334859235523
0.009735255970092317,-0.044480048828870064
0.0050354772259098195,-0.043305104142824444
0.0023498893720912484,-0.044480048828870064
0.0010070954451819635,-0.044480048828870064
0.0023498893720912484,-0.03910887312123293
-0.0030212863355458916,-0.03172350652323186
-0.0016784924086366065,-0.029205767910276948
0.0016784924086366065,-0.033401998931868467
-0.0003356984817273213,-0.042465857938506144
-0.0016784924086366065,-0.04783703364614328
0.0016784924086366065,-0.04582284275577936
0.007049668116273747,-0.03843747615777828
0.002014190890363927,-0.030716411078049892
0.006378271152819104,-0.026352330815594724
0.007721065079728388,-0.02584878309300374
0.007721065079728388,-0.027359426260776684
0.010406652933546959,-0.02668802929732204
0.009063859006637675,-0.025680933852140077
0.004699778744182497,-0.025009536888685433
0.005706874189364461,-0.026352330815594724
0.007721065079728388,-0.027695124742504008
0.005706874189364461,-0.029037918669413288
0.006378271152819104,-0.030045014114595252
0.0010070954451819635,-0.032730601968413826
0.0023498893720912484,-0.03440909437705043
-0.0006713969634546426,-0.03172350652323186
-0.0010070954451819635,-0.025009536888685433
0.0023498893720912484,-0.020645456626230255
0.0023498893720912484,-0.02265964751659419
0.0023498893720912484,-0.028702220187685965
0.0023498893720912484,-0.03373769741359579
0.0016784924086366065,-0.035416189822232394
0.004364080262455177,-0.03910887312123293
0.0023498893720912484,-0.04716563668268864
0.0016784924086366065,-0.053208209353780414
0.006378271152819104,-0.05622949568932631
0.009735255970092317,-0.056061646448462656
0.006042572671091783,-0.05354390783550774
-0.0006713969634546426,-0.05253681239032577
0.0030212863355458916,-0.05253681239032577
0.007721065079728388,-0.053208209353780414
0.0050354772259098195,-0.05387960631723506
0.008392462043183033,-0.052201113908598454
0.008392462043183033,-0.04649423971923399
0.011749446860456245,-0.040451667048142216
0.011749446860456245,-0.03810177767605096
0.010406652933546959,-0.03860532539864195
0.007721065079728388,-0.0426337071793698
0.007721065079728388,-0.043808651865415424
0.008392462043183033,-0.041123064011596856
0.0030212863355458916,-0.03776607919432364
0.0050354772259098195,-0.035751888303959714
0.003692683299000534,-0.03138780804150454
0.0010070954451819635,-0.025680933852140077
-0.0010070954451819635,-0.025345235370412753
-0.0006713969634546426,-0.029037918669413288
0.0010070954451819635,-0.029709315632867935
0.0010070954451819635,-0.025177386129549097
-0.0030212863355458916,-0.020309758144502935
-0.003692683299000534,-0.020309758144502935
-0.0016784924086366065,-0.024338139925230793
0.003692683299000534,-0.02719157701991302
0.0023498893720912484,-0.025009536888685433
0.0010070954451819635,-0.020981155107957578
0.003356984817273213,-0.022323949034866862
0.002014190890363927,-0.028702220187685965
0.006378271152819104,-0.0323949034866865
0.007385366598001068,-0.033401998931868467
0.0023498893720912484,-0.033066300450141146
-0.0030212863355458916,-0.03474479285877775
-0.0030212863355458916,-0.03978027008468757
-0.0010070954451819635,-0.044815747310597384
0.0030212863355458916,-0.048508430609597926
0.0023498893720912484,-0.05085831998168917
0.0030212863355458916,-0.05488670176241703
0.0010070954451819635,-0.056061646448462656
0.0016784924086366065,-0.051529716945143814
0.0023498893720912484,-0.04615854123750667
0.0050354772259098195,-0.043808651865415424
0.006378271152819104,-0.044480048828870064
0.0023498893720912484,-0.044480048828870064
0.007721065079728388,-0.044480048828870064
0.009735255970092317,-0.04313725490196078
0.007721065079728388,-0.03860532539864195
0.010070954451819639,-0.03508049134050507
0.009063859006637675,-0.033066300450141146
0.009063859006637675,-0.035416189822232394
0.008392462043183033,-0.04145876249332417
0.0050354772259098195,-0.04515144579232471
0.0050354772259098195,-0.041123064011596856
0.007721065079728388,-0.033234149691004806
0.0050354772259098195,-0.028366521705958644
0.0023498893720912484,-0.025680933852140077
0.003356984817273213,-0.024338139925230793
0.0006713969634546426,-0.022323949034866862
-0.0003356984817273213,-0.017624170290684367
-0.0003356984817273213,-0.014938582436865796
0.0010070954451819635,-0.021652552071412222
0.0050354772259098195,-0.02719157701991302
0.007049668116273747,-0.029037918669413288
0.007721065079728388,-0.02668802929732204
0.010406652933546959,-0.0213168535896849
0.011749446860456245,-0.01829556725413901
0.011078049897001601,-0.01829556725413901
0.005706874189364461,-0.022323949034866862
0.0003356984817273213,-0.026352330815594724
0.0010070954451819635,-0.030045014114595252
0.007049668116273747,-0.028702220187685965
0.007721065079728388,-0.02400244144350347
0.004364080262455177,-0.024673838406958113
0.0023498893720912484,-0.032730601968413826
0.0023498893720912484,-0.042465857938506144
-0.0016784924086366065,-0.0473334859235523
-0.0023498893720912484,-0.050690470740825506
-0.004364080262455177,-0.054551003280689715
-0.0030212863355458916,-0.054551003280689715
-0.0030212863355458916,-0.051865415426871134
-0.004364080262455177,-0.048508430609597926
-0.002014190890363927,-0.048508430609597926
0.0010070954451819635,-0.049347676813916226
0.003692683299000534,-0.04917982757305257
0.003356984817273213,-0.04716563668268864
0.003692683299000534,-0.04313725490196078
0.006378271152819104,-0.040451667048142216
0.007721065079728388,-0.0379339284351873
0.0050354772259098195,-0.03776607919432364
0.003692683299000534,-0.04061951628900587
0.0023498893720912484,-0.04313725490196078
0.0023498893720912484,-0.044480048828870064
0.009735255970092317,-0.04582284275577936
0.007721065079728388,-0.044480048828870064
0.006378271152819104,-0.040451667048142216
0.0023498893720912484,-0.03373769741359579
-0.003356984817273213,-0.0260166323338674
-0.002014190890363927,-0.0213168535896849
-0.0013427939269092851,-0.020309758144502935
-0.0003356984817273213,-0.024338139925230793
-0.0010070954451819635,-0.02853437094682231
0.0023498893720912484,-0.03138780804150454
0.003356984817273213,-0.029709315632867935
0.0050354772259098195,-0.02366674296177615
0.007721065079728388,-0.01829556725413901
0.010070954451819639,-0.01829556725413901
0.0050354772259098195,-0.025009536888685433
0.004364080262455177,-0.03105210955977722
0.006378271152819104,-0.03172350652323186
0.004364080262455177,-0.029037918669413288
0.003692683299000534,-0.027023727779049357
0.006378271152819104,-0.028030823224231328
0.006713969634546426,-0.03172350652323186
0.007721065079728388,-0.03978027008468757
0.004364080262455177,-0.048508430609597926
0.006378271152819104,-0.0520332646677348
0.0023498893720912484,-0.051865415426871134
0.002014190890363927,-0.04917982757305257
0.0023498893720912484,-0.049851224536507206
-0.0016784924086366065,-0.049851224536507206
-0.0016784924086366065,-0.048844129091325246
0.0003356984817273213,-0.04615854123750667
-0.0030212863355458916,-0.043472953383688104
-0.006042572671091783,-0.04414435034714275
-0.003692683299000534,-0.048844129091325246
0.003692683299000534,-0.050019073777370866
0.003692683299000534,-0.04716563668268864
0.002014190890363927,-0.043305104142824444
-0.0023498893720912484,-0.044480048828870064
-0.0003356984817273213,-0.048508430609597926
0.006378271152819104,-0.048508430609597926
0.009063859006637675,-0.043976501106279084
0.009735255970092317,-0.0387731746395056
0.012420843823910887,-0.03776607919432364
0.013092240787365528,-0.03373769741359579
0.013092240787365528,-0.026352330815594724
0.013092240787365528,-0.019638361181048294
0.008728160524910353,-0.017792019531548024
0.009735255970092317,-0.020981155107957578
0.0050354772259098195,-0.022995345998321506
-0.0023498893720912484,-0.024338139925230793
0.0010070954451819635,-0.026352330815594724
0.004364080262455177,-0.028366521705958644
-0.0016784924086366065,-0.028702220187685965
-0.004364080262455177,-0.025009536888685433
-0.0023498893720912484,-0.021988250553139542
0.0023498893720912484,-0.02400244144350347
0.0030212863355458916,-0.027695124742504008
0.0023498893720912484,-0.02584878309300374
0.005706874189364461,-0.020309758144502935
0.003692683299000534,-0.019638361181048294
0.005706874189364461,-0.027023727779049357
0.007721065079728388,-0.035416189822232394
0.010406652933546959,-0.03910887312123293
0.009063859006637675,-0.036423285267414354
0.007721065079728388,-0.03608758678568704
0.011749446860456245,-0.04515144579232471
0.006378271152819104,-0.05354390783550774
0.003692683299000534,-0.05488670176241703
0.0023498893720912484,-0.048508430609597926
-0.0023498893720912484,-0.04313725490196078
-0.005706874189364461,-0.04313725490196078
-0.0030212863355458916,-0.043472953383688104
-0.0003356984817273213,-0.04414435034714275
-0.0003356984817273213,-0.0426337071793698
-0.0003356984817273213,-0.041794460975051496
0.0050354772259098195,-0.037262531471732654
0.0050354772259098195,-0.03105210955977722
0.0030212863355458916,-0.030380712596322572
0.004364080262455177,-0.03440909437705043
0.004699778744182497,-0.040451667048142216
0.0016784924086366065,-0.04213015945677882
0.0010070954451819635,-0.0387731746395056
0.0023498893720912484,-0.03373769741359579
0.007049668116273747,-0.029709315632867935
0.013092240787365528,-0.026352330815594724
0.012420843823910887,-0.02366674296177615
0.005706874189364461,-0.027023727779049357
0.0050354772259098195,-0.029709315632867935
0.008392462043183033,-0.029037918669413288
0.007049668116273747,-0.026352330815594724
0.006378271152819104,-0.024338139925230793
0.003692683299000534,-0.022323949034866862
0.004364080262455177,-0.020981155107957578
0.0016784924086366065,-0.01913481345845731
0.0010070954451819635,-0.01829556725413901
0.0003356984817273213,-0.01896696421759365
-0.0010070954451819635,-0.021988250553139542
-0.0003356984817273213,-0.028366521705958644
-0.0003356984817273213,-0.033066300450141146
0.0010070954451819635,-0.037094682230869
0.005706874189364461,-0.03910887312123293
0.0050354772259098195,-0.03810177767605096
0.004699778744182497,-0.03826962691691462
0.009063859006637675,-0.04313725490196078
0.009063859006637675,-0.053208209353780414
0.0050354772259098195,-0.060761425192645144
0.0010070954451819635,-0.06462195773250935
-0.0003356984817273213,-0.062272068360418105
-0.005706874189364461,-0.05555809872587166
-0.0030212863355458916,-0.051865415426871134
0.0010070954451819635,-0.053208209353780414
0.003692683299000534,-0.05522240024414436
0.0006713969634546426,-0.05421530479896238
0.0010070954451819635,-0.049851224536507206
0.0023498893720912484,-0.042801556420233464
-0.0003356984817273213,-0.03659113450827802
0.0010070954451819635,-0.03659113450827802
0.003692683299000534,-0.03944457160296025
0.0023498893720912484,-0.042465857938506144
0.004028381780727854,-0.04313725490196078
0.005706874189364461,-0.03994811932555123
0.008728160524910353,-0.033066300450141146
0.009063859006637675,-0.024338139925230793
0.014099336232547494,-0.017288471808957043
0.013092240787365528,-0.01527428091859312
0.013092240787365528,-0.016617074845502403
0.009063859006637675,-0.017959868772411687
0.0016784924086366065,-0.020309758144502935
-0.005706874189364461,-0.024673838406958113
-0.0030212863355458916,-0.0323949034866865
0.0010070954451819635,-0.036423285267414354
-0.0016784924086366065,-0.035751888303959714
-0.0003356984817273213,-0.0323949034866865
0.0010070954451819635,-0.03105210955977722
-0.0003356984817273213,-0.02937361715114061
-0.0016784924086366065,-0.02668802929732204
0.0016784924086366065,-0.030380712596322572
0.003692683299000534,-0.035751888303959714
0.0050354772259098195,-0.03776607919432364
0.007721065079728388,-0.03508049134050507
0.0050354772259098195,-0.03054856183718624
0.0050354772259098195,-0.03172350652323186
0.0050354772259098195,-0.037262531471732654
0.008392462043183033,-0.044480048828870064
0.007385366598001068,-0.04716563668268864
0.005706874189364461,-0.04783703364614328
0.006378271152819104,-0.048340581368734266
0.0050354772259098195,-0.048676279850461586
0.003692683299000534,-0.04682993820096131
0.0016784924086366065,-0.043472953383688104
0.0050354772259098195,-0.043808651865415424
0.004364080262455177,-0.04582284275577936
0.002014190890363927,-0.04615854123750667
0.0016784924086366065,-0.042465857938506144
0.0016784924086366065,-0.035751888303959714
-0.0016784924086366065,-0.030380712596322572
0.0006713969634546426,-0.03105210955977722
0.0023498893720912484,-0.03474479285877775
0.0050354772259098195,-0.03608758678568704
0.0050354772259098195,-0.03508049134050507
0.004364080262455177,-0.03256275272755016
0.0050354772259098195,-0.030716411078049892
0.003692683299000534,-0.027359426260776684
0.0010070954451819635,-0.025680933852140077
0.0023498893720912484,-0.021652552071412222
0.004364080262455177,-0.01560997940032044
0.006378271152819104,-0.014938582436865796
0.006378271152819104,-0.020981155107957578
0.0023498893720912484,-0.030380712596322572
0.0050354772259098195,-0.03508049134050507
0.009063859006637675,-0.035919737544823374
0.010406652933546959,-0.0323949034866865
0.010406652933546959,-0.027023727779049357
0.010406652933546959,-0.025009536888685433
0.007049668116273747,-0.02668802929732204
0.0003356984817273213,-0.032730601968413826
-0.0030212863355458916,-0.036423285267414354
0.0010070954451819635,-0.036423285267414354
0.0010070954451819635,-0.03608758678568704
-0.0030212863355458916,-0.03843747615777828
0.0050354772259098195,-0.04313725490196078
0.0050354772259098195,-0.04515144579232471
0.008392462043183033,-0.04582284275577936
0.010406652933546959,-0.04917982757305257
0.009735255970092317,-0.05270466163118945
0.007049668116273747,-0.05253681239032577
0.007049668116273747,-0.050186923018234526
0.0050354772259098195,-0.04750133516441596
0.0050354772259098195,-0.04716563668268864
0.0050354772259098195,-0.0481727321278706
0.003692683299000534,-0.04716563668268864
0.004364080262455177,-0.04313725490196078
0.0016784924086366065,-0.03910887312123293
0.0003356984817273213,-0.041123064011596856
0.0010070954451819635,-0.04615854123750667
-0.0050354772259098195,-0.04917982757305257
-0.007049668116273747,-0.04649423971923399
0.0010070954451819635,-0.040451667048142216
0.0006713969634546426,-0.03776607919432364
-0.0030212863355458916,-0.03743038071259632
-0.0010070954451819635,-0.03810177767605096
0.0016784924086366065,-0.03675898374914168
0.0050354772259098195,-0.035919737544823374
0.003692683299000534,-0.03172350652323186
0.007721065079728388,-0.025680933852140077
0.007721065079728388,-0.019974059662775615
0.010406652933546959,-0.01913481345845731
0.009063859006637675,-0.02366674296177615
0.003692683299000534,-0.02668802929732204
0.0016784924086366065,-0.028702220187685965
-0.0016784924086366065,-0.029709315632867935
-0.007721065079728388,-0.027359426260776684
-0.005706874189364461,-0.02333104448004883
-0.0003356984817273213,-0.020309758144502935
0.0050354772259098195,-0.021820401312275882
0.006378271152819104,-0.024673838406958113
0.0030212863355458916,-0.02668802929732204
0.0023498893720912484,-0.028366521705958644
0.002014190890363927,-0.029037918669413288
-0.0016784924086366065,-0.029709315632867935
-0.0030212863355458916,-0.032730601968413826
0.0010070954451819635,-0.03978027008468757
0.004699778744182497,-0.04582284275577936
0.004364080262455177,-0.049011978332188906
0.007721065079728388,-0.05119401846341649
0.012420843823910887,-0.054551003280689715
0.009063859006637675,-0.05555809872587166
0.009063859006637675,-0.05522240024414436
0.007721065079728388,-0.049851224536507206
0.006378271152819104,-0.043808651865415424
0.008392462043183033,-0.03978027008468757
0.009063859006637675,-0.037094682230869
0.007721065079728388,-0.036423285267414354
0.0030212863355458916,-0.035416189822232394
0.003356984817273213,-0.035919737544823374
0.007721065079728388,-0.03675898374914168
0.010070954451819639,-0.03843747615777828
0.007721065079728388,-0.041123064011596856
0.006378271152819104,-0.042465857938506144
0.003356984817273213,-0.04213015945677882
-0.0003356984817273213,-0.03810177767605096
0.0023498893720912484,-0.033066300450141146
0.0023498893720912484,-0.026352330815594724
0.006378271152819104,-0.019638361181048294
0.009399557488364994,-0.017624170290684367
0.007721065079728388,-0.020309758144502935
0.0016784924086366065,-0.029037918669413288
0.0050354772259098195,-0.037094682230869
0.0030212863355458916,-0.03978027008468757
0.0030212863355458916,-0.035416189822232394
0.0030212863355458916,-0.027359426260776684
0.0003356984817273213,-0.0213168535896849
0.007049668116273747,-0.021820401312275882
0.0050354772259098195,-0.025177386129549097
0.0010070954451819635,-0.028702220187685965
0.0010070954451819635,-0.03138780804150454
-0.0023498893720912484,-0.03256275272755016
-0.0010070954451819635,-0.035248340581368734
-0.0016784924086366065,-0.03843747615777828
-0.0023498893720912484,-0.042465857938506144
-0.0003356984817273213,-0.04213015945677882
-0.0016784924086366065,-0.04078736552986953
0.0023498893720912484,-0.04414435034714275
0.007385366598001068,-0.051529716945143814
0.006378271152819104,-0.05857938506141757
0.007721065079728388,-0.05790798809796292
0.007385366598001068,-0.051865415426871134
0.009063859006637675,-0.04582284275577936
0.009063859006637675,-0.040451667048142216
0.003692683299000534,-0.03843747615777828
-0.002014190890363927,-0.03978027008468757
-0.0030212863355458916,-0.04313725490196078
0.0023498893720912484,-0.044480048828870064
0.007721065079728388,-0.04515144579232471
0.007721065079728388,-0.044815747310597384
0.006378271152819104,-0.043808651865415424
0.003356984817273213,-0.04213015945677882
-0.0010070954451819635,-0.03743038071259632
-0.0010070954451819635,-0.03373769741359579
0.0010070954451819635,-0.03373769741359579
-0.0003356984817273213,-0.032730601968413826
-0.0010070954451819635,-0.02652018005645838
-0.0030212863355458916,-0.01628137636377508
-0.005706874189364461,-0.011581597619592583
-0.004364080262455177,-0.016617074845502403
-0.0010070954451819635,-0.021652552071412222
0.0050354772259098195,-0.020645456626230255
0.007385366598001068,-0.019302662699320974
0.009399557488364994,-0.0213168535896849
0.011749446860456245,-0.026184481574731057
0.010406652933546959,-0.028702220187685965
0.010406652933546959,-0.029709315632867935
0.011078049897001601,-0.028030823224231328
0.007721065079728388,-0.025680933852140077
0.004364080262455177,-0.026352330815594724
-0.0003356984817273213,-0.029037918669413288
-0.004364080262455177,-0.03373769741359579
-0.005706874189364461,-0.03843747615777828
0.0030212863355458916,-0.043808651865415424
0.006378271152819104,-0.043976501106279084
0.006378271152819104,-0.04145876249332417
0.005706874189364461,-0.043472953383688104
0.0030212863355458916,-0.049851224536507206
-0.0003356984817273213,-0.05656519417105363
-0.004364080262455177,-0.05589379720759898
-0.006042572671091783,-0.05488670176241703
-0.0003356984817273213,-0.05387960631723506
0.004364080262455177,-0.050522621499961846
0.007385366598001068,-0.04582284275577936
0.0050354772259098195,-0.041123064011596856
0.007721065079728388,-0.03927672236209659
0.0050354772259098195,-0.03927672236209659
0.0050354772259098195,-0.040451667048142216
0.006378271152819104,-0.040451667048142216
0.006042572671091783,-0.03810177767605096
0.0023498893720912484,-0.03776607919432364
0.007721065079728388,-0.04129091325246051
0.008392462043183033,-0.0387731746395056
0.007049668116273747,-0.0323949034866865
0.009063859006637675,-0.028366521705958644
0.005706874189364461,-0.026352330815594724
0.004699778744182497,-0.026352330815594724
0.0030212863355458916,-0.025680933852140077
0.003692683299000534,-0.024338139925230793
0.0050354772259098195,-0.021820401312275882
0.006378271152819104,-0.020981155107957578
0.007721065079728388,-0.022323949034866862
0.006042572671091783,-0.02366674296177615
0.009063859006637675,-0.029037918669413288
0.009063859006637675,-0.03172350652323186
0.009063859006637675,-0.03256275272755016
0.010406652933546959,-0.03138780804150454
0.013092240787365528,-0.027695124742504008
0.010406652933546959,-0.02400244144350347
0.006378271152819104,-0.022995345998321506
0.006713969634546426,-0.025680933852140077
0.006378271152819104,-0.03105210955977722
0.004364080262455177,-0.037094682230869
0.003692683299000534,-0.03910887312123293
0.0023498893720912484,-0.040451667048142216
0.007385366598001068,-0.04313725490196078
0.003692683299000534,-0.04615854123750667
0.0010070954451819635,-0.05119401846341649
-0.0016784924086366065,-0.05522240024414436
-0.0013427939269092851,-0.056061646448462656
-0.004364080262455177,-0.0520332646677348
-0.007721065079728388,-0.04515144579232471
-0.0030212863355458916,-0.03944457160296025
0.0010070954451819635,-0.03743038071259632
-0.0006713969634546426,-0.03743038071259632
-0.0016784924086366065,-0.036423285267414354
-0.0023498893720912484,-0.03373769741359579
-0.004364080262455177,-0.033401998931868467
-0.0030212863355458916,-0.03675898374914168
0.0016784924086366065,-0.041794460975051496
0.0010070954451819635,-0.043976501106279084
0.0010070954451819635,-0.03910887312123293
0.0050354772259098195,-0.03105210955977722
0.0050354772259098195,-0.028030823224231328
0.0016784924086366065,-0.030045014114595252
-0.0023498893720912484,-0.033066300450141146
0.0023498893720912484,-0.03138780804150454
0.003692683299000534,-0.027023727779049357
0.0050354772259098195,-0.020981155107957578
0.0050354772259098195,-0.01628137636377508
0.0010070954451819635,-0.016617074845502403
0.0010070954451819635,-0.02366674296177615
0.003692683299000534,-0.03105210955977722
0.0010070954451819635,-0.03121995880064088
0.0010070954451819635,-0.027359426260776684
0.0016784924086366065,-0.022323949034866862
0.0023498893720912484,-0.017959868772411687
0.004364080262455177,-0.01913481345845731
0.006378271152819104,-0.02400244144350347
0.005706874189364461,-0.03105210955977722
0.008392462043183033,-0.036423285267414354
0.010070954451819639,-0.041794460975051496
0.009063859006637675,-0.043808651865415424
0.009063859006637675,-0.044480048828870064
0.011749446860456245,-0.04582284275577936
0.006378271152819104,-0.049851224536507206
0.004364080262455177,-0.054551003280689715
0.007721065079728388,-0.05421530479896238
0.008728160524910353,-0.050522621499961846
0.003692683299000534,-0.04917982757305257
-0.002014190890363927,-0.05119401846341649
-0.003692683299000534,-0.050522621499961846
0.0010070954451819635,-0.048508430609597926
0.003692683299000534,-0.04313725490196078
0.0006713969634546426,-0.03843747615777828
-0.0030212863355458916,-0.036423285267414354
-0.0003356984817273213,-0.03776607919432364
-0.0010070954451819635,-0.043472953383688104
0.003692683299000534,-0.04716563668268864
0.006042572671091783,-0.0473334859235523
0.007721065079728388,-0.04313725490196078
0.007721065079728388,-0.03776607919432364
0.006378271152819104,-0.036423285267414354
0.010406652933546959,-0.03440909437705043
0.010406652933546959,-0.0323949034866865
0.003692683299000534,-0.029037918669413288
0.003356984817273213,-0.02584878309300374
-0.0003356984817273213,-0.022995345998321506
0.0016784924086366065,-0.01896696421759365
0.004364080262455177,-0.017959868772411687
0.005706874189364461,-0.01913481345845731
0.0023498893720912484,-0.022323949034866862
0.0023498893720912484,-0.024338139925230793
0.0003356984817273213,-0.024338139925230793
0.0010070954451819635,-0.024338139925230793
-0.0003356984817273213,-0.022995345998321506
0.0010070954451819635,-0.019302662699320974
0.0006713969634546426,-0.017624170290684367
-0.0023498893720912484,-0.019974059662775615
0.0050354772259098195,-0.02265964751659419
0.012420843823910887,-0.024338139925230793
0.009063859006637675,-0.030380712596322572
0.007721065079728388,-0.03978027008468757
0.008392462043183033,-0.04582284275577936
0.006378271152819104,-0.04783703364614328
0.003692683299000534,-0.0481727321278706
0.004699778744182497,-0.04716563668268864
0.008392462043183033,-0.04515144579232471
0.0050354772259098195,-0.04515144579232471
0.0023498893720912484,-0.0481727321278706
0.0023498893720912484,-0.050186923018234526
0.006378271152819104,-0.050522621499961846
0.003692683299000534,-0.04783703364614328
-0.002014190890363927,-0.04313725490196078
0.0016784924086366065,-0.04078736552986953
0.003692683299000534,-0.04213015945677882
0.0050354772259098195,-0.04750133516441596
0.003692683299000534,-0.050522621499961846
0.0023498893720912484,-0.051529716945143814
0.0030212863355458916,-0.049851224536507206
0.0050354772259098195,-0.04649423971923399
0.010406652933546959,-0.0426337071793698
0.011078049897001601,-0.03910887312123293
0.011749446860456245,-0.03659113450827802
0.007721065079728388,-0.035416189822232394
0.003692683299000534,-0.0323949034866865
-0.0003356984817273213,-0.027023727779049357
0.0003356984817273213,-0.022995345998321506
0.003692683299000534,-0.021652552071412222
0.006042572671091783,-0.022995345998321506
0.0030212863355458916,-0.023834592202639806
-0.0010070954451819635,-0.02366674296177615
-0.004364080262455177,-0.024338139925230793
-0.0016784924086366065,-0.024673838406958113
0.0010070954451819635,-0.025345235370412753
-0.0006713969634546426,-0.024505989166094453
-0.0003356984817273213,-0.025009536888685433
0.0023498893720912484,-0.024338139925230793
0.0010070954451819635,-0.022995345998321506
0.0003356984817273213,-0.022995345998321506
-0.003692683299000534,-0.02668802929732204
0.0023498893720912484,-0.035416189822232394
0.010070954451819639,-0.044480048828870064
0.010406652933546959,-0.049851224536507206
0.011749446860456245,-0.04783703364614328
0.0050354772259098195,-0.044815747310597384
-0.0016784924086366065,-0.04682993820096131
-0.005706874189364461,-0.051865415426871134
-0.0016784924086366065,-0.05522240024414436
0.003356984817273213,-0.05488670176241703
0.0023498893720912484,-0.054551003280689715
-0.0010070954451819635,-0.05253681239032577
-0.0016784924086366065,-0.04750133516441596
0.0003356984817273213,-0.041962310215915156
0.0023498893720912484,-0.03843747615777828
0.0010070954451819635,-0.03978027008468757
-0.0030212863355458916,-0.04582284275577936
-0.002014190890363927,-0.05387960631723506
0.004364080262455177,-0.05589379720759898
0.007385366598001068,-0.04917982757305257
0.005706874189364461,-0.040451667048142216
0.007721065079728388,-0.03407339589532311
0.009735255970092317,-0.029709315632867935
0.011413748378728923,-0.025345235370412753
0.011749446860456245,-0.022995345998321506
0.010406652933546959,-0.02333104448004883
0.005706874189364461,-0.026352330815594724
0.003692683299000534,-0.024338139925230793
0.006378271152819104,-0.01896696421759365
0.0050354772259098195,-0.014938582436865796
0.003692683299000534,-0.01527428091859312
0.007049668116273747,-0.020309758144502935
0.008392462043183033,-0.02366674296177615
0.003692683299000534,-0.024338139925230793
0.0003356984817273213,-0.024338139925230793
-0.0003356984817273213,-0.025680933852140077
-0.0016784924086366065,-0.025680933852140077
0.0010070954451819635,-0.02400244144350347
0.006378271152819104,-0.024673838406958113
0.005706874189364461,-0.028366521705958644
0.0050354772259098195,-0.035751888303959714
0.004364080262455177,-0.043305104142824444
0.004364080262455177,-0.048844129091325246
0.0023498893720912484,-0.048844129091325246
0.0016784924086366065,-0.04649423971923399
0.0016784924086366065,-0.04800488288700694
0.0023498893720912484,-0.05119401846341649
0.003356984817273213,-0.05387960631723506
0.0030212863355458916,-0.05354390783550774
0.0013427939269092851,-0.05253681239032577
-0.0003356984817273213,-0.04917982757305257
0.0010070954451819635,-0.04213015945677882
0.0003356984817273213,-0.03776607919432364
-0.0030212863355458916,-0.03508049134050507
-0.006042572671091783,-0.03508049134050507
-0.0010070954451819635,-0.037094682230869
-0.0010070954451819635,-0.040451667048142216
-0.002014190890363927,-0.044480048828870064
-0.0003356984817273213,-0.050186923018234526
0.0023498893720912484,-0.048844129091325246
0.008392462043183033,-0.041123064011596856
0.007049668116273747,-0.029709315632867935
0.008728160524910353,-0.020645456626230255
0.013092240787365528,-0.01896696421759365
0.010406652933546959,-0.022323949034866862
0.009735255970092317,-0.02366674296177615
0.008392462043183033,-0.021988250553139542
0.006378271152819104,-0.02366674296177615
0.004028381780727854,-0.025345235370412753
0.007049668116273747,-0.024338139925230793
0.0050354772259098195,-0.022995345998321506
0.005706874189364461,-0.025345235370412753
0.006378271152819104,-0.03172350652323186
0.0010070954451819635,-0.03373769741359579
0.0023498893720912484,-0.0315556572823682
-0.0016784924086366065,-0.024505989166094453
-0.0030212863355458916,-0.01829556725413901
-0.006042572671091783,-0.019302662699320974
-0.0030212863355458916,-0.0260166323338674
-0.003692683299000534,-0.035248340581368734
-0.0050354772259098195,-0.041794460975051496
0.0023498893720912484,-0.044480048828870064
0.0050354772259098195,-0.043808651865415424
0.006378271152819104,-0.044480048828870064
0.009735255970092317,-0.04917982757305257
0.010406652933546959,-0.05253681239032577
0.008392462043183033,-0.05253681239032577
0.0050354772259098195,-0.049515526054779886
0.004364080262455177,-0.04582284275577936
0.005706874189364461,-0.04515144579232471
0.005706874189364461,-0.048676279850461586
0.012756542305638208,-0.048508430609597926
0.013092240787365528,-0.043472953383688104
0.007049668116273747,-0.036423285267414354
-0.0003356984817273213,-0.03390554665445944
-0.0003356984817273213,-0.03776607919432364
-0.0030212863355458916,-0.040451667048142216
-0.005706874189364461,-0.04313725490196078
-0.007049668116273747,-0.043808651865415424
-0.0050354772259098195,-0.04213015945677882
0.0016784924086366065,-0.035416189822232394
0.0023498893720912484,-0.027359426260776684
-0.0010070954451819635,-0.021149004348821242
-0.004364080262455177,-0.01846341649500267
-0.005706874189364461,-0.022156099794003202
-0.003692683299000534,-0.025680933852140077
0.003356984817273213,-0.027023727779049357
0.0050354772259098195,-0.02652018005645838
0.0050354772259098195,-0.02366674296177615
0.0050354772259098195,-0.019974059662775615
0.003692683299000534,-0.020309758144502935
0.005706874189364461,-0.02668802929732204
0.007049668116273747,-0.033066300450141146
0.012420843823910887,-0.037094682230869
0.009735255970092317,-0.036423285267414354
0.0023498893720912484,-0.028366521705958644
0.0016784924086366065,-0.02265964751659419
0.0010070954451819635,-0.022995345998321506
-0.0006713969634546426,-0.028702220187685965
0.0010070954451819635,-0.03407339589532311
0.006378271152819104,-0.03810177767605096
0.0016784924086366065,-0.04414435034714275
0.003692683299000534,-0.053208209353780414
0.004699778744182497,-0.058915083543144876
0.0016784924086366065,-0.061936369878690785
0.003692683299000534,-0.05992217898832684
0.0050354772259098195,-0.054551003280689715
0.0050354772259098195,-0.04766918440527961
0.005706874189364461,-0.043472953383688104
0.009063859006637675,-0.04615854123750667
0.009063859006637675,-0.049515526054779886
0.007721065079728388,-0.0481727321278706
0.006378271152819104,-0.040451667048142216
0.003692683299000534,-0.03407339589532311
-0.0016784924086366065,-0.033066300450141146
0.0023498893720912484,-0.03810177767605096
0.004364080262455177,-0.044815747310597384
-0.0003356984817273213,-0.04783703364614328
-0.0003356984817273213,-0.04649423971923399
0.0010070954451819635,-0.04145876249332417
0.006378271152819104,-0.035751888303959714
0.003692683299000534,-0.03205920500495917
0.0003356984817273213,-0.028702220187685965
0.0016784924086366065,-0.028702220187685965
0.0003356984817273213,-0.02937361715114061
0.0023498893720912484,-0.028702220187685965
0.004364080262455177,-0.0260166323338674
0.0023498893720912484,-0.02349889372091249
0.003692683299000534,-0.023834592202639806
0.003692683299000534,-0.02584878309300374
0.007385366598001068,-0.02400244144350347
0.010406652933546959,-0.020309758144502935
0.006378271152819104,-0.01846341649500267
0.003692683299000534,-0.020981155107957578
0.006378271152819104,-0.024338139925230793
0.006378271152819104,-0.025680933852140077
-0.0003356984817273213,-0.028366521705958644
-0.0016784924086366065,-0.029709315632867935
-0.007049668116273747,-0.02937361715114061
-0.0030212863355458916,-0.03256275272755016
-0.0030212863355458916,-0.03776607919432364
-0.0030212863355458916,-0.043472953383688104
-0.0023498893720912484,-0.04783703364614328
0.0010070954451819635,-0.049515526054779886
0.003356984817273213,-0.050186923018234526
0.0010070954451819635,-0.050522621499961846
-0.0010070954451819635,-0.04716563668268864
0.0016784924086366065,-0.04213015945677882
0.0010070954451819635,-0.041794460975051496
0.003356984817273213,-0.04313725490196078
0.004364080262455177,-0.041962310215915156
0.007385366598001068,-0.03843747615777828
0.008392462043183033,-0.035919737544823374
0.007385366598001068,-0.036423285267414354
0.007721065079728388,-0.03978027008468757
0.009063859006637675,-0.04548714427405204
0.003692683299000534,-0.051865415426871134
0.006378271152819104,-0.05337605859464408
0.009063859006637675,-0.04716563668268864
0.009063859006637675,-0.03776607919432364
0.006378271152819104,-0.029037918669413288
-0.0006713969634546426,-0.025345235370412753
-0.0030212863355458916,-0.022323949034866862
0.0003356984817273213,-0.017624170290684367
-0.0030212863355458916,-0.014938582436865796
-0.0006713969634546426,-0.01628137636377508
0.003692683299000534,-0.020981155107957578
0.002014190890363927,-0.02333104448004883
0.003692683299000534,-0.02584878309300374
0.002014190890363927,-0.02333104448004883
0.0010070954451819635,-0.019638361181048294
0.0016784924086366065,-0.01896696421759365
0.004699778744182497,-0.019302662699320974
0.005706874189364461,-0.021652552071412222
0.007721065079728388,-0.025345235370412753
0.013092240787365528,-0.029205767910276948
0.012756542305638208,-0.03105210955977722
0.007049668116273747,-0.030380712596322572
0.0050354772259098195,-0.030716411078049892
-0.0003356984817273213,-0.035919737544823374
-0.0003356984817273213,-0.043808651865415424
-0.0016784924086366065,-0.04783703364614328
-0.004364080262455177,-0.05119401846341649
-0.0030212863355458916,-0.05387960631723506
-0.0003356984817273213,-0.05589379720759898
0.0023498893720912484,-0.05589379720759898
-0.0016784924086366065,-0.05253681239032577
-0.004364080262455177,-0.050522621499961846
0.0010070954451819635,-0.050186923018234526
0.003692683299000534,-0.049851224536507206
0.004364080262455177,-0.04649423971923399
0.003692683299000534,-0.03944457160296025
0.006378271152819104,-0.03508049134050507
0.010406652933546959,-0.035751888303959714
0.008728160524910353,-0.03910887312123293
0.010406652933546959,-0.04213015945677882
0.007049668116273747,-0.044480048828870064
0.004364080262455177,-0.043640802624551764
0.007721065079728388,-0.043808651865415424
0.004699778744182497,-0.04414435034714275
-0.0003356984817273213,-0.042465857938506144
0.0023498893720912484,-0.035751888303959714
0.0023498893720912484,-0.028366521705958644
0.0003356984817273213,-0.022156099794003202
-0.0016784924086366065,-0.019302662699320974
-0.0016784924086366065,-0.020981155107957578
0.0016784924086366065,-0.025009536888685433
0.0016784924086366065,-0.029709315632867935
0.0023498893720912484,-0.030045014114595252
0.005706874189364461,-0.0260166323338674
0.006378271152819104,-0.022323949034866862
0.007721065079728388,-0.021652552071412222
0.007721065079728388,-0.024338139925230793
0.007721065079728388,-0.027359426260776684
0.007049668116273747,-0.03105210955977722
0.0050354772259098195,-0.03172350652323186
0.003692683299000534,-0.030380712596322572
0.0010070954451819635,-0.029709315632867935
0.003692683299000534,-0.03121995880064088
0.0050354772259098195,-0.03810177767605096
0.0050354772259098195,-0.04548714427405204
0.004364080262455177,-0.049851224536507206
0.004699778744182497,-0.053208209353780414
0.004364080262455177,-0.05522240024414436
-0.0003356984817273213,-0.057572289616235596
-0.0003356984817273213,-0.05790798809796292
-0.0030212863355458916,-0.05522240024414436
-0.0016784924086366065,-0.050186923018234526
0.0003356984817273213,-0.04531929503318838
-0.0010070954451819635,-0.04615854123750667
-0.004364080262455177,-0.04917982757305257
-0.0016784924086366065,-0.04582284275577936
0.0050354772259098195,-0.03776607919432364
0.0030212863355458916,-0.03054856183718624
0.006378271152819104,-0.030716411078049892
0.006378271152819104,-0.035751888303959714
0.007721065079728388,-0.03994811932555123
0.007721065079728388,-0.04213015945677882
0.0050354772259098195,-0.03978027008468757
0.007049668116273747,-0.03508049134050507
0.006378271152819104,-0.027695124742504008
0.003356984817273213,-0.019974059662775615
-0.0003356984817273213,-0.01628137636377508
-0.0030212863355458916,-0.017959868772411687
-0.0003356984817273213,-0.02400244144350347
-0.0016784924086366065,-0.028702220187685965
-0.002014190890363927,-0.03138780804150454
-0.002014190890363927,-0.03172350652323186
-0.0003356984817273213,-0.028366521705958644
0.0023498893720912484,-0.025009536888685433
0.004364080262455177,-0.022491798275730522
0.007049668116273747,-0.02333104448004883
0.005706874189364461,-0.027023727779049357
0.006378271152819104,-0.030380712596322572
0.005706874189364461,-0.03121995880064088
0.0023498893720912484,-0.028366521705958644
0.0050354772259098195,-0.026352330815594724
0.007385366598001068,-0.028366521705958644
0.006378271152819104,-0.033234149691004806
0.007721065079728388,-0.037094682230869
0.013092240787365528,-0.03944457160296025
0.014435034714274816,-0.04313725490196078
0.010406652933546959,-0.049515526054779886
0.007721065079728388,-0.05354390783550774
0.0030212863355458916,-0.05589379720759898
-0.0003356984817273213,-0.05387960631723506
-0.0030212863355458916,-0.04917982757305257
-0.002014190890363927,-0.04531929503318838
-0.0003356984817273213,-0.041794460975051496
-0.0003356984817273213,-0.040451667048142216
-0.0016784924086366065,-0.03944457160296025
0.0003356984817273213,-0.0387731746395056
-0.0016784924086366065,-0.03776607919432364
0.0016784924086366065,-0.035751888303959714
0.006378271152819104,-0.03776607919432364
0.009063859006637675,-0.041794460975051496
0.0050354772259098195,-0.04582284275577936
0.0050354772259098195,-0.04414435034714275
0.009063859006637675,-0.04011596856641489
0.009063859006637675,-0.033234149691004806
0.008728160524910353,-0.024338139925230793
0.006378271152819104,-0.01560997940032044
0.007049668116273747,-0.011917296101319903
0.007049668116273747,-0.014938582436865796
0.004364080262455177,-0.022491798275730522
-0.0003356984817273213,-0.029709315632867935
-0.0010070954451819635,-0.032730601968413826
0.0010070954451819635,-0.030716411078049892
0.0010070954451819635,-0.026352330815594724
0.0010070954451819635,-0.02265964751659419
0.0010070954451819635,-0.021820401312275882
0.002014190890363927,-0.02366674296177615
0.0010070954451819635,-0.025009536888685433
0.0023498893720912484,-0.024673838406958113
0.0016784924086366065,-0.026352330815594724
0.003692683299000534,-0.028366521705958644
-0.0003356984817273213,-0.0323949034866865
-0.005706874189364461,-0.03776607919432364
-0.0003356984817273213,-0.041123064011596856
0.0010070954451819635,-0.043305104142824444
0.004364080262455177,-0.04783703364614328
0.0050354772259098195,-0.05522240024414436
0.003692683299000534,-0.058075837338826576
0.0023498893720912484,-0.05790798809796292
0.0023498893720912484,-0.05488670176241703
-0.0030212863355458916,-0.04682993820096131
0.0023498893720912484,-0.04078736552986953
0.0030212863355458916,-0.03978027008468757
0.0010070954451819635,-0.04414435034714275
-0.0016784924086366065,-0.04615854123750667
-0.0003356984817273213,-0.044815747310597384
0.0010070954451819635,-0.03961242084382391
-0.0010070954451819635,-0.03474479285877775
0.0003356984817273213,-0.035416189822232394
-0.0006713969634546426,-0.03927672236209659
-0.0003356984817273213,-0.043808651865415424
0.0003356984817273213,-0.04548714427405204
0.0050354772259098195,-0.043472953383688104
0.009735255970092317,-0.03810177767605096
0.013092240787365528,-0.029037918669413288
0.013092240787365528,-0.022323949034866862
0.010406652933546959,-0.021149004348821242
0.009063859006637675,-0.022995345998321506
0.007721065079728388,-0.022323949034866862
0.003692683299000534,-0.022995345998321506
0.0050354772259098195,-0.025680933852140077
0.003692683299000534,-0.030045014114595252
0.002014190890363927,-0.03105210955977722
0.0023498893720912484,-0.028702220187685965
-0.0016784924086366065,-0.02366674296177615
-0.004699778744182497,-0.020645456626230255
-0.003356984817273213,-0.02265964751659419
-0.0030212863355458916,-0.0260166323338674
-0.0006713969634546426,-0.03105210955977722
0.0010070954451819635,-0.035248340581368734
0.0010070954451819635,-0.03978027008468757
0.0006713969634546426,-0.042801556420233464
-0.0003356984817273213,-0.041794460975051496
0.003692683299000534,-0.03961242084382391
0.0050354772259098195,-0.042465857938506144
0.007049668116273747,-0.049851224536507206
0.008728160524910353,-0.05471885252155337
0.0050354772259098195,-0.054551003280689715
0.003692683299000534,-0.05253681239032577
0.0050354772259098195,-0.05085831998168917
0.009063859006637675,-0.050690470740825506
0.007721065079728388,-0.04750133516441596
0.005706874189364461,-0.04632639047837033
0.0023498893720912484,-0.04649423971923399
0.0023498893720912484,-0.04649423971923399
0.0016784924086366065,-0.04582284275577936
0.0023498893720912484,-0.042801556420233464
0.002014190890363927,-0.03843747615777828
0.0013427939269092851,-0.037094682230869
-0.0003356984817273213,-0.03776607919432364
0.003692683299000534,-0.036423285267414354
0.0023498893720912484,-0.03373769741359579
0.003356984817273213,-0.03440909437705043
0.007721065079728388,-0.036423285267414354
0.006378271152819104,-0.03105210955977722
0.006378271152819104,-0.021652552071412222
0.010406652933546959,-0.01292439154650187
0.0157778286411841,-0.009903105210955977
0.014099336232547494,-0.012588693064774548
0.011749446860456245,-0.0157778286411841
0.006378271152819104,-0.020645456626230255
0.0016784924086366065,-0.024338139925230793
0.0010070954451819635,-0.026352330815594724
-0.0016784924086366065,-0.023834592202639806
-0.006378271152819104,-0.01896696421759365
-0.0030212863355458916,-0.016617074845502403
0.0030212863355458916,-0.018631265735866327
0.004364080262455177,-0.0260166323338674
-0.0006713969634546426,-0.033234149691004806
-0.0030212863355458916,-0.037094682230869
-0.0003356984817273213,-0.03659113450827802
-0.0010070954451819635,-0.036423285267414354
0.003692683299000534,-0.03843747615777828
0.003356984817273213,-0.04145876249332417
0.003692683299000534,-0.04750133516441596
0.003692683299000534,-0.05555809872587166
0.0016784924086366065,-0.06260776684214542
0.006378271152819104,-0.06260776684214542
0.006378271152819104,-0.05555809872587166
0.0050354772259098195,-0.0481727321278706
0.0030212863355458916,-0.044480048828870064
-0.0010070954451819635,-0.043472953383688104
-0.0003356984817273213,-0.040451667048142216
0.0023498893720912484,-0.03407339589532311
0.007385366598001068,-0.03508049134050507
0.006042572671091783,-0.041794460975051496
0.007721065079728388,-0.044480048828870064
0.0050354772259098195,-0.044815747310597384
-0.003692683299000534,-0.04515144579232471
-0.003692683299000534,-0.04582284275577936
-0.0016784924086366065,-0.04515144579232471
-0.003692683299000534,-0.042465857938506144
-0.0030212863355458916,-0.04078736552986953
0.0023498893720912484,-0.03843747615777828
0.010406652933546959,-0.035919737544823374
0.011749446860456245,-0.028702220187685965
0.006378271152819104,-0.019974059662775615
0.006042572671091783,-0.014938582436865796
0.007721065079728388,-0.01527428091859312
0.010406652933546959,-0.021820401312275882
0.006378271152819104,-0.027695124742504008
0.009735255970092317,-0.03105210955977722
0.008392462043183033,-0.03105210955977722
0.0030212863355458916,-0.027359426260776684
0.006378271152819104,-0.022491798275730522
0.006378271152819104,-0.019638361181048294
0.0010070954451819635,-0.019638361181048294
-0.0006713969634546426,-0.024338139925230793
-0.0003356984817273213,-0.0323949034866865
0.0050354772259098195,-0.03508049134050507
0.006378271152819104,-0.035416189822232394
0.0050354772259098195,-0.03776607919432364
0.003692683299000534,-0.041123064011596856
0.0023498893720912484,-0.04515144579232471
-0.0003356984817273213,-0.048508430609597926
-0.0016784924086366065,-0.049851224536507206
-0.0006713969634546426,-0.04917982757305257
0.0006713969634546426,-0.04917982757305257
0.006042572671091783,-0.04649423971923399
0.007721065079728388,-0.042465857938506144
0.0050354772259098195,-0.03776607919432364
-0.0003356984817273213,-0.035751888303959714
0.0010070954451819635,-0.03743038071259632
0.009063859006637675,-0.0387731746395056
0.007049668116273747,-0.03978027008468757
0.0023498893720912484,-0.041123064011596856
-0.0003356984817273213,-0.04414435034714275
0.0023498893720912484,-0.044480048828870064
0.0023498893720912484,-0.04129091325246051
0.004028381780727854,-0.0387731746395056
0.0016784924086366065,-0.040451667048142216
0.002014190890363927,-0.042465857938506144
0.0010070954451819635,-0.03978027008468757
-0.0010070954451819635,-0.033234149691004806
-0.0003356984817273213,-0.027695124742504008
0.0023498893720912484,-0.025177386129549097
0.003692683299000534,-0.02366674296177615
0.003692683299000534,-0.021652552071412222
0.005706874189364461,-0.022995345998321506
0.004364080262455177,-0.02584878309300374
0.005706874189364461,-0.028366521705958644
0.011749446860456245,-0.02668802929732204
0.015442130159456776,-0.020309758144502935
0.012756542305638208,-0.013931486991683832
0.009063859006637675,-0.014267185473411156
0.0050354772259098195,-0.01896696421759365
-0.0030212863355458916,-0.021652552071412222
-0.005706874189364461,-0.020309758144502935
-0.0030212863355458916,-0.022323949034866862
-0.0030212863355458916,-0.03172350652323186
-0.0010070954451819635,-0.03910887312123293
0.0016784924086366065,-0.041123064011596856
-0.0003356984817273213,-0.04061951628900587
-0.0003356984817273213,-0.044480048828870064
-0.0003356984817273213,-0.051865415426871134
0.0010070954451819635,-0.05421530479896238
-0.0010070954451819635,-0.05387960631723506
-0.0003356984817273213,-0.054551003280689715
0.006378271152819104,-0.05522240024414436
0.010406652933546959,-0.053208209353780414
0.011749446860456245,-0.0481727321278706
0.007721065079728388,-0.04414435034714275
0.0023498893720912484,-0.043808651865415424
0.003692683299000534,-0.04599069199664301
0.007721065079728388,-0.04515144579232471
0.0050354772259098195,-0.041123064011596856
-0.003692683299000534,-0.03776607919432364
-0.004364080262455177,-0.03860532539864195
-0.004364080262455177,-0.041123064011596856
-0.0010070954451819635,-0.043808651865415424
-0.0003356984817273213,-0.04682993820096131
0.0023498893720912484,-0.04716563668268864
-0.0013427939269092851,-0.04313725490196078
-0.0003356984817273213,-0.03256275272755016
0.003692683299000534,-0.01896696421759365
-0.0010070954451819635,-0.01292439154650187
0.0010070954451819635,-0.01628137636377508
0.005706874189364461,-0.020477607385366595
0.006378271152819104,-0.020981155107957578
0.004364080262455177,-0.020981155107957578
0.007721065079728388,-0.02333104448004883
0.009735255970092317,-0.027695124742504008
0.011749446860456245,-0.02937361715114061
0.008392462043183033,-0.028030823224231328
0.0050354772259098195,-0.02400244144350347
0.0023498893720912484,-0.021652552071412222
0.0030212863355458916,-0.02333104448004883
0.007721065079728388,-0.0260166323338674
0.003692683299000534,-0.03105210955977722
-0.003356984817273213,-0.035751888303959714
-0.004364080262455177,-0.040451667048142216
0.0030212863355458916,-0.04313725490196078
0.0023498893720912484,-0.04582284275577936
-0.0010070954451819635,-0.048508430609597926
-0.0010070954451819635,-0.051865415426871134
0.0016784924086366065,-0.05656519417105363
0.0023498893720912484,-0.05522240024414436
0.0010070954451819635,-0.0520332646677348
0.0023498893720912484,-0.050019073777370866
0.004364080262455177,-0.04599069199664301
0.011749446860456245,-0.03978027008468757
0.013092240787365528,-0.03743038071259632
0.014435034714274816,-0.041794460975051496
0.009735255970092317,-0.04783703364614328
0.0050354772259098195,-0.048844129091325246
0.0050354772259098195,-0.043305104142824444
0.007385366598001068,-0.035751888303959714
0.0016784924086366065,-0.0323949034866865
0.0010070954451819635,-0.03508049134050507
0.0030212863355458916,-0.036423285267414354
0.0050354772259098195,-0.033066300450141146
0.0023498893720912484,-0.027359426260776684
0.003356984817273213,-0.024505989166094453
0.005706874189364461,-0.025680933852140077
0.0023498893720912484,-0.0260166323338674
0.0023498893720912484,-0.0260166323338674
-0.0003356984817273213,-0.022995345998321506
-0.0023498893720912484,-0.021652552071412222
-0.0003356984817273213,-0.021988250553139542
0.003692683299000534,-0.02366674296177615
0.006378271152819104,-0.029709315632867935
0.004364080262455177,-0.03508049134050507
0.002014190890363927,-0.03508049134050507
0.003356984817273213,-0.028366521705958644
0.0050354772259098195,-0.02366674296177615
0.004364080262455177,-0.024338139925230793
0.004364080262455177,-0.028366521705958644
0.003692683299000534,-0.035751888303959714
0.005706874189364461,-0.04061951628900587
0.007049668116273747,-0.041123064011596856
0.009063859006637675,-0.03978027008468757
0.0006713969634546426,-0.03843747615777828
0.0010070954451819635,-0.04145876249332417
0.0010070954451819635,-0.0473334859235523
-0.0030212863355458916,-0.05555809872587166
-0.0050354772259098195,-0.060593575951781484
-0.006042572671091783,-0.06210421911955444
-0.002014190890363927,-0.059250782024872196
0.0010070954451819635,-0.049851224536507206
0.0010070954451819635,-0.041123064011596856
-0.0030212863355458916,-0.03978027008468757
0.0023498893720912484,-0.04145876249332417
0.003692683299000534,-0.04011596856641489
-0.0003356984817273213,-0.037094682230869
0.004699778744182497,-0.036423285267414354
0.003692683299000534,-0.043305104142824444
0.004364080262455177,-0.048508430609597926
0.007721065079728388,-0.0473334859235523
0.007721065079728388,-0.041123064011596856
0.007049668116273747,-0.035751888303959714
0.010406652933546959,-0.03105210955977722
0.008392462043183033,-0.027023727779049357
0.007721065079728388,-0.024505989166094453
0.007721065079728388,-0.02400244144350347
0.003692683299000534,-0.022995345998321506
0.0016784924086366065,-0.019974059662775615
-0.0013427939269092851,-0.017959868772411687
-0.0030212863355458916,-0.01829556725413901
-0.0030212863355458916,-0.019638361181048294
-0.0010070954451819635,-0.02265964751659419
0.0010070954451819635,-0.023834592202639806
0.003692683299000534,-0.02265964751659419
0.004364080262455177,-0.022995345998321506
0.0050354772259098195,-0.027023727779049357
0.007721065079728388,-0.029877164873731592
0.0030212863355458916,-0.028366521705958644
-0.0016784924086366065,-0.02887006942854963
0.0006713969634546426,-0.0323949034866865
-0.0016784924086366065,-0.03776607919432364
0.004364080262455177,-0.04011596856641489
0.009063859006637675,-0.03776607919432364
0.007049668116273747,-0.03675898374914168
0.007049668116273747,-0.0387731746395056
0.004364080262455177,-0.04313725490196078
0.004364080262455177,-0.04615854123750667
0.004364080262455177,-0.04582284275577936
0.0003356984817273213,-0.044480048828870064
-0.0010070954451819635,-0.04615854123750667
-0.0010070954451819635,-0.04582284275577936
-0.0003356984817273213,-0.040451667048142216
0.0023498893720912484,-0.0323949034866865
0.0023498893720912484,-0.029037918669413288
0.0010070954451819635,-0.033234149691004806
0.003692683299000534,-0.03675898374914168
0.004364080262455177,-0.03910887312123293
0.003356984817273213,-0.04078736552986953
0.003692683299000534,-0.044480048828870064
0.0050354772259098195,-0.04582284275577936
0.011413748378728923,-0.04313725490196078
0.010406652933546959,-0.03910887312123293
0.006042572671091783,-0.03407339589532311
0.008392462043183033,-0.033066300450141146
0.007385366598001068,-0.03172350652323186
0.0016784924086366065,-0.027023727779049357
0.0016784924086366065,-0.022323949034866862
0.0023498893720912484,-0.021149004348821242
0.0030212863355458916,-0.024338139925230793
0.0010070954451819635,-0.027359426260776684
0.0016784924086366065,-0.03256275272755016
-0.0023498893720912484,-0.035751888303959714
-0.004364080262455177,-0.03508049134050507
-0.0016784924086366065,-0.032730601968413826
0.0016784924086366065,-0.028702220187685965
-0.0030212863355458916,-0.024338139925230793
0.0023498893720912484,-0.021652552071412222
0.009399557488364994,-0.022995345998321506
0.006378271152819104,-0.025009536888685433
0.004699778744182497,-0.029037918669413288
0.0050354772259098195,-0.03608758678568704
0.007721065079728388,-0.04582284275577936
0.0050354772259098195,-0.053208209353780414
0.007049668116273747,-0.05572594796673533
0.007721065079728388,-0.052201113908598454
0.004364080262455177,-0.04716563668268864
0.0010070954451819635,-0.04682993820096131
0.0016784924086366065,-0.048508430609597926
0.0050354772259098195,-0.0528725108720531
0.007721065079728388,-0.05387960631723506
0.0050354772259098195,-0.05119401846341649
0.0023498893720912484,-0.04313725490196078
0.0023498893720912484,-0.03675898374914168
-0.0003356984817273213,-0.03373769741359579
-0.0023498893720912484,-0.033401998931868467
-0.0016784924086366065,-0.03776607919432364
-0.004028381780727854,-0.041794460975051496
0.0003356984817273213,-0.043808651865415424
0.006378271152819104,-0.04313725490196078
0.003356984817273213,-0.04011596856641489
0.0023498893720912484,-0.035416189822232394
0.003692683299000534,-0.0323949034866865
0.009063859006637675,-0.033066300450141146
0.006378271152819104,-0.033066300450141146
0.007721065079728388,-0.028366521705958644
0.009735255970092317,-0.022323949034866862
0.007049668116273747,-0.016449225604638743
0.006378271152819104,-0.01359578850995651
0.006378271152819104,-0.01628137636377508
0.004364080262455177,-0.020645456626230255
0.002014190890363927,-0.022995345998321506
-0.004699778744182497,-0.025009536888685433
-0.004364080262455177,-0.027023727779049357
-0.004364080262455177,-0.030380712596322572
-0.007049668116273747,-0.03105210955977722
-0.004364080262455177,-0.029709315632867935
0.002014190890363927,-0.02652018005645838
0.003692683299000534,-0.024505989166094453
0.005706874189364461,-0.027359426260776684
0.0050354772259098195,-0.033066300450141146
0.003692683299000534,-0.041123064011596856
0.006378271152819104,-0.04649423971923399
0.005706874189364461,-0.050186923018234526
0.006378271152819104,-0.051865415426871134
0.0050354772259098195,-0.051865415426871134
0.006378271152819104,-0.051529716945143814
0.007049668116273747,-0.051361867704280154
0.0023498893720912484,-0.05253681239032577
-0.0003356984817273213,-0.05253681239032577
-0.0010070954451819635,-0.05119401846341649
-0.0003356984817273213,-0.04716563668268864
0.003692683299000534,-0.04145876249332417
0.0010070954451819635,-0.035751888303959714
-0.0003356984817273213,-0.03440909437705043
0.0010070954451819635,-0.03810177767605096
0.0010070954451819635,-0.04061951628900587
0.003692683299000534,-0.041123064011596856
0.0016784924086366065,-0.036423285267414354
0.003692683299000534,-0.029709315632867935
0.006378271152819104,-0.027023727779049357
0.007721065079728388,-0.029037918669413288
0.010406652933546959,-0.0323949034866865
0.011749446860456245,-0.03508049134050507
0.007721065079728388,-0.03440909437705043
0.004028381780727854,-0.03172350652323186
0.0050354772259098195,-0.029877164873731592
0.007049668116273747,-0.027023727779049357
0.007049668116273747,-0.026352330815594724
0.0050354772259098195,-0.02668802929732204
0.0023498893720912484,-0.02652018005645838
0.002014190890363927,-0.025009536888685433
0.006378271152819104,-0.02366674296177615
0.003692683299000534,-0.023163195239185166
0.0010070954451819635,-0.022995345998321506
0.003356984817273213,-0.02584878309300374
0.005706874189364461,-0.028366521705958644
0.0010070954451819635,-0.027023727779049357
-0.0010070954451819635,-0.026352330815594724
0.004699778744182497,-0.028366521705958644
0.0050354772259098195,-0.03474479285877775
0.0030212863355458916,-0.040451667048142216
-0.0010070954451819635,-0.04313725490196078
-0.0003356984817273213,-0.041123064011596856
-0.0030212863355458916,-0.0387731746395056
-0.0016784924086366065,-0.042801556420233464
0.0003356984817273213,-0.04783703364614328
0.0050354772259098195,-0.05253681239032577
0.003692683299000534,-0.05488670176241703
0.003692683299000534,-0.054551003280689715
0.002014190890363927,-0.05119401846341649
0.0023498893720912484,-0.043808651865415424
0.0030212863355458916,-0.03927672236209659
0.004364080262455177,-0.03910887312123293
0.0010070954451819635,-0.041123064011596856
0.0023498893720912484,-0.040451667048142216
0.003692683299000534,-0.040451667048142216
0.0010070954451819635,-0.043808651865415424
-0.0003356984817273213,-0.049515526054779886
0.0030212863355458916,-0.04649423971923399
0.0050354772259098195,-0.03944457160296025
0.004699778744182497,-0.030380712596322572
0.007049668116273747,-0.022995345998321506
0.004364080262455177,-0.020981155107957578
0.0050354772259098195,-0.021652552071412222
0.007721065079728388,-0.025345235370412753
0.007385366598001068,-0.027695124742504008
0.007385366598001068,-0.027695124742504008
0.008392462043183033,-0.02584878309300374
0.007049668116273747,-0.022995345998321506
0.0050354772259098195,-0.021652552071412222
0.0023498893720912484,-0.02366674296177615
0.0023498893720912484,-0.027695124742504008
0.004364080262455177,-0.029037918669413288
0.003356984817273213,-0.027695124742504008
0.0006713969634546426,-0.025177386129549097
0.0010070954451819635,-0.024338139925230793
-0.003692683299000534,-0.0260166323338674
-0.008392462043183033,-0.028366521705958644
-0.0016784924086366065,-0.03474479285877775
-0.0016784924086366065,-0.043808651865415424
-0.0003356984817273213,-0.050186923018234526
0.003692683299000534,-0.050522621499961846
0.0023498893720912484,-0.04917982757305257
-0.0003356984817273213,-0.05085831998168917
0.0010070954451819635,-0.05354390783550774
0.009735255970092317,-0.05522240024414436
0.011749446860456245,-0.05706874189364462
0.006378271152819104,-0.05488670176241703
0.0050354772259098195,-0.050522621499961846
0.006378271152819104,-0.05035477225909819
0.006378271152819104,-0.049851224536507206
0.005706874189364461,-0.04582284275577936
0.009063859006637675,-0.03843747615777828
0.008392462043183033,-0.03440909437705043
0.004364080262455177,-0.03608758678568704
0.0016784924086366065,-0.03978027008468757
-0.0003356984817273213,-0.044815747310597384
-0.0010070954451819635,-0.04649423971923399
-0.0016784924086366065,-0.04515144579232471
0.003356984817273213,-0.03910887312123293
0.0010070954451819635,-0.03105210955977722
0.0010070954451819635,-0.025009536888685433
0.0010070954451819635,-0.022323949034866862
0.0003356984817273213,-0.022995345998321506
0.0010070954451819635,-0.021988250553139542
0.005706874189364461,-0.019638361181048294
0.008728160524910353,-0.01695277332722972
0.007385366598001068,-0.016617074845502403
0.006378271152819104,-0.019806210421911954
0.013092240787365528,-0.02366674296177615
0.010070954451819639,-0.025680933852140077
0.006713969634546426,-0.025680933852140077
0.006378271152819104,-0.02400244144350347
0.004364080262455177,-0.021149004348821242
0.005706874189364461,-0.01896696421759365
0.006378271152819104,-0.020309758144502935
0.0023498893720912484,-0.025177386129549097
-0.0003356984817273213,-0.03105210955977722
0.0016784924086366065,-0.03440909437705043
0.0016784924086366065,-0.036423285267414354
-0.0023498893720912484,-0.042465857938506144
-0.003356984817273213,-0.05253681239032577
-0.002014190890363927,-0.05740444037537193
0.0003356984817273213,-0.05656519417105363
-0.0003356984817273213,-0.0520332646677348
0.0010070954451819635,-0.048676279850461586
0.0050354772259098195,-0.04783703364614328
0.006378271152819104,-0.04716563668268864
0.003692683299000534,-0.0481727321278706
0.0023498893720912484,-0.04666208896009766
0.0050354772259098195,-0.043808651865415424
0.008392462043183033,-0.0379339284351873
0.010406652933546959,-0.03138780804150454
0.006042572671091783,-0.03105210955977722
0.009063859006637675,-0.036423285267414354
0.008728160524910353,-0.04414435034714275
0.004699778744182497,-0.04917982757305257
-0.0003356984817273213,-0.04917982757305257
-0.004364080262455177,-0.04213015945677882
-0.0030212863355458916,-0.033401998931868467
-0.0010070954451819635,-0.028702220187685965
-0.0016784924086366065,-0.027023727779049357
-0.0016784924086366065,-0.028366521705958644
-0.0016784924086366065,-0.028366521705958644
0.0016784924086366065,-0.025345235370412753
0.009063859006637675,-0.022995345998321506
0.006378271152819104,-0.021820401312275882
0.0030212863355458916,-0.020477607385366595
-0.0003356984817273213,-0.020309758144502935
-0.0016784924086366065,-0.021652552071412222
0.0023498893720912484,-0.019302662699320974
0.0050354772259098195,-0.01594567788204776
0.0050354772259098195,-0.01812771801327535
0.0006713969634546426,-0.026352330815594724
0.0023498893720912484,-0.0323949034866865
0.0023498893720912484,-0.036423285267414354
0.004364080262455177,-0.03776607919432364
0.009063859006637675,-0.03810177767605096
0.013092240787365528,-0.03994811932555123
0.01376363775082017,-0.041794460975051496
0.003692683299000534,-0.04649423971923399
-0.0003356984817273213,-0.05304036011291676
-0.006042572671091783,-0.05857938506141757
-0.009735255970092317,-0.05522240024414436
-0.006378271152819104,-0.04917982757305257
0.0023498893720912484,-0.04716563668268864
0.005706874189364461,-0.04548714427405204
0.007049668116273747,-0.04582284275577936
0.007049668116273747,-0.043472953383688104
0.0050354772259098195,-0.040451667048142216
0.003356984817273213,-0.0387731746395056
0.005706874189364461,-0.03776607919432364
0.002014190890363927,-0.03776607919432364
0.003692683299000534,-0.037094682230869
0.009063859006637675,-0.03944457160296025
0.010406652933546959,-0.043640802624551764
0.006378271152819104,-0.044815747310597384
0.0050354772259098195,-0.041794460975051496
0.0050354772259098195,-0.036423285267414354
0.0003356984817273213,-0.033066300450141146
0.0023498893720912484,-0.030716411078049892
0.003356984817273213,-0.027695124742504008
0.0010070954451819635,-0.021988250553139542
-0.0016784924086366065,-0.017120622568093383
-0.0030212863355458916,-0.019806210421911954
0.0006713969634546426,-0.028702220187685965
0.007049668116273747,-0.033401998931868467
0.010406652933546959,-0.032730601968413826
0.009063859006637675,-0.028030823224231328
0.007721065079728388,-0.02366674296177615
0.004364080262455177,-0.021652552071412222
0.0023498893720912484,-0.022323949034866862
0.0023498893720912484,-0.02652018005645838
0.006378271152819104,-0.029709315632867935
0.007721065079728388,-0.029037918669413288
0.0023498893720912484,-0.025680933852140077
0.0023498893720912484,-0.025009536888685433
0.0010070954451819635,-0.030380712596322572
0.0003356984817273213,-0.03843747615777828
-0.0003356984817273213,-0.049851224536507206
-0.005706874189364461,-0.055390249485008015
-0.003356984817273213,-0.056900892652780956
0.0010070954451819635,-0.057236591134508276
0.004364080262455177,-0.05656519417105363
0.0006713969634546426,-0.053208209353780414
0.0023498893720912484,-0.04917982757305257
0.0010070954451819635,-0.049851224536507206
-0.0016784924086366065,-0.04917982757305257
-0.0003356984817273213,-0.04599069199664301
-0.0006713969634546426,-0.04129091325246051
0.0010070954451819635,-0.036423285267414354
0.0050354772259098195,-0.03508049134050507
0.006378271152819104,-0.036423285267414354
0.0050354772259098195,-0.03910887312123293
0.0030212863355458916,-0.041123064011596856
0.006042572671091783,-0.041123064011596856
0.006378271152819104,-0.040451667048142216
0.006378271152819104,-0.04011596856641489
0.003356984817273213,-0.037094682230869
-0.0003356984817273213,-0.033066300450141146
0.0023498893720912484,-0.027695124742504008
0.005706874189364461,-0.02333104448004883
0.004364080262455177,-0.020309758144502935
-0.0003356984817273213,-0.019974059662775615
-0.0030212863355458916,-0.02584878309300374
-0.0003356984817273213,-0.032898451209277486
-0.0023498893720912484,-0.035751888303959714
-0.0010070954451819635,-0.0323949034866865
0.0013427939269092851,-0.0260166323338674
0.0010070954451819635,-0.022323949034866862
0.0023498893720912484,-0.0213168535896849
0.003692683299000534,-0.02366674296177615
0.007721065079728388,-0.027023727779049357
0.010406652933546959,-0.028366521705958644
0.009735255970092317,-0.028702220187685965
0.011749446860456245,-0.02937361715114061
0.010406652933546959,-0.03172350652323186
0.006378271152819104,-0.03508049134050507
0.006378271152819104,-0.041794460975051496
0.0010070954451819635,-0.049851224536507206
0.0016784924086366065,-0.05656519417105363
0.006378271152819104,-0.05656519417105363
0.008728160524910353,-0.050522621499961846
0.008728160524910353,-0.048508430609597926
0.004028381780727854,-0.049515526054779886
-0.0006713969634546426,-0.048844129091325246
-0.0016784924086366065,-0.04582284275577936
0.0016784924086366065,-0.041794460975051496
0.004699778744182497,-0.04078736552986953
0.007049668116273747,-0.04313725490196078
0.006378271152819104,-0.041962310215915156
0.009063859006637675,-0.037262531471732654
0.004364080262455177,-0.03440909437705043
0.0003356984817273213,-0.03776607919432364
0.006042572671091783,-0.04213015945677882
0.010070954451819639,-0.042465857938506144
0.010406652933546959,-0.040451667048142216
0.009063859006637675,-0.03843747615777828
0.006378271152819104,-0.036423285267414354
0.006378271152819104,-0.030380712596322572
0.0016784924086366065,-0.021820401312275882
0.0010070954451819635,-0.01695277332722972
-0.0010070954451819635,-0.016617074845502403
-0.0030212863355458916,-0.019806210421911954
-0.0016784924086366065,-0.022995345998321506
-0.0010070954451819635,-0.026352330815594724
0.0003356984817273213,-0.028366521705958644
0.0003356984817273213,-0.029037918669413288
-0.0010070954451819635,-0.02668802929732204
0.0003356984817273213,-0.022323949034866862
0.0023498893720912484,-0.024338139925230793
0.003356984817273213,-0.0323949034866865
0.0050354772259098195,-0.03743038071259632
0.0030212863355458916,-0.03659113450827802
0.004364080262455177,-0.032730601968413826
0.0050354772259098195,-0.03105210955977722
0.010070954451819639,-0.03407339589532311
0.010406652933546959,-0.0379339284351873
0.007721065079728388,-0.04011596856641489
0.0050354772259098195,-0.04213015945677882
0.0030212863355458916,-0.04582284275577936
0.0050354772259098195,-0.05085831998168917
0.0023498893720912484,-0.053208209353780414
-0.006378271152819104,-0.05253681239032577
-0.002014190890363927,-0.04716563668268864
-0.0003356984817273213,-0.03944457160296025
-0.0030212863355458916,-0.032730601968413826
-0.0003356984817273213,-0.030045014114595252
0.004364080262455177,-0.03373769741359579
0.003356984817273213,-0.03944457160296025
0.004364080262455177,-0.041794460975051496
0.004699778744182497,-0.03776607919432364
0.003692683299000534,-0.03256275272755016
0.0016784924086366065,-0.033066300450141146
-0.0003356984817273213,-0.035751888303959714
-0.0023498893720912484,-0.03743038071259632
0.003356984817273213,-0.03474479285877775
0.007385366598001068,-0.030716411078049892
0.0050354772259098195,-0.024673838406958113
0.0050354772259098195,-0.01829556725413901
0.007721065079728388,-0.014267185473411156
0.0023498893720912484,-0.01326009002822919
-0.0003356984817273213,-0.01695277332722972
0.0010070954451819635,-0.025345235370412753
-0.005706874189364461,-0.03172350652323186
-0.004364080262455177,-0.030716411078049892
-0.0023498893720912484,-0.024338139925230793
0.009735255970092317,-0.017624170290684367
0.006378271152819104,-0.01527428091859312
-0.0003356984817273213,-0.017120622568093383
0.0006713969634546426,-0.021988250553139542
-0.0030212863355458916,-0.026352330815594724
-0.004364080262455177,-0.028366521705958644
-0.004364080262455177,-0.03407339589532311
0.0023498893720912484,-0.04313725490196078
0.0050354772259098195,-0.049851224536507206
0.0003356984817273213,-0.049347676813916226
0.006378271152819104,-0.04750133516441596
0.008728160524910353,-0.04917982757305257
0.0050354772259098195,-0.054551003280689715
0.003692683299000534,-0.061936369878690785
0.006378271152819104,-0.06428625925078202
0.009063859006637675,-0.062272068360418105
0.009063859006637675,-0.05656519417105363
0.009063859006637675,-0.04716563668268864
0.006378271152819104,-0.040451667048142216
0.007385366598001068,-0.03910887312123293
0.013092240787365528,-0.04213015945677882
0.009399557488364994,-0.04313725490196078
0.009063859006637675,-0.04213015945677882
0.011078049897001601,-0.04061951628900587
0.010406652933546959,-0.03978027008468757
0.009735255970092317,-0.041123064011596856
0.006378271152819104,-0.042465857938506144
0.0050354772259098195,-0.044815747310597384
0.006042572671091783,-0.04666208896009766
-0.0003356984817273213,-0.04682993820096131
-0.0030212863355458916,-0.04078736552986953
-0.0016784924086366065,-0.029709315632867935
-0.0050354772259098195,-0.021652552071412222
-0.007049668116273747,-0.019638361181048294
-0.0050354772259098195,-0.020309758144502935
-0.0016784924086366065,-0.0213168535896849
-0.0010070954451819635,-0.025680933852140077
0.0010070954451819635,-0.03172350652323186
0.0010070954451819635,-0.03810177767605096
-0.0003356984817273213,-0.0387731746395056
0.0030212863355458916,-0.03440909437705043
0.0016784924086366065,-0.026352330815594724
-0.0030212863355458916,-0.020645456626230255
0.0010070954451819635,-0.020645456626230255
0.0023498893720912484,-0.023834592202639806
0.0050354772259098195,-0.02937361715114061
0.003692683299000534,-0.03457694361791409
0.007721065079728388,-0.03978027008468757
0.007385366598001068,-0.03994811932555123
0.0023498893720912484,-0.03776607919432364
0.010406652933546959,-0.037262531471732654
0.010406652933546959,-0.041123064011596856
0.009735255970092317,-0.05119401846341649
0.010070954451819639,-0.056900892652780956
0.010406652933546959,-0.054551003280689715
0.010406652933546959,-0.049515526054779886
0.004364080262455177,-0.04649423971923399
0.0010070954451819635,-0.044480048828870064
0.0050354772259098195,-0.041123064011596856
0.003692683299000534,-0.03978027008468757
0.004364080262455177,-0.041123064011596856
0.007385366598001068,-0.043808651865415424
0.007049668116273747,-0.043808651865415424
0.0050354772259098195,-0.03810177767605096
0.0023498893720912484,-0.032730601968413826
0.0003356984817273213,-0.033066300450141146
0.0050354772259098195,-0.03440909437705043
0.003692683299000534,-0.019806210421911954
0.0030212863355458916,-0.0008392462043183033
0.0003356984817273213,0.0035248340581368735
-0.005706874189364461,-0.0055390249485008005
-0.002014190890363927,-0.011581597619592583
-0.0016784924086366065,-0.011749446860456245
0.0010070954451819635,-0.008560311284046692
0.0050354772259098195,-0.007049668116273747
0.008392462043183033,-0.009231708247501335
0.003692683299000534,-0.014267185473411156
0.0023498893720912484,-0.024338139925230793
0.004364080262455177,-0.0323949034866865
0.0030212863355458916,-0.03373769741359579
0.0010070954451819635,-0.027695124742504008
-0.0003356984817273213,-0.023163195239185166
0.0023498893720912484,-0.02366674296177615
-0.0003356984817273213,-0.027359426260776684
-0.0016784924086366065,-0.03373769741359579
-0.005706874189364461,-0.03810177767605096
-0.005706874189364461,-0.03910887312123293
-0.006378271152819104,-0.03843747615777828
-0.004364080262455177,-0.03944457160296025
-0.0016784924086366065,-0.044480048828870064
0.0023498893720912484,-0.05085831998168917
-0.0003356984817273213,-0.057236591134508276
-0.0003356984817273213,-0.06260776684214542
0.006378271152819104,-0.06697184710460058
0.009735255970092317,-0.06764324406805522
0.008392462043183033,-0.061936369878690785
0.007721065079728388,-0.05387960631723506
0.006378271152819104,-0.05253681239032577
0.004699778744182497,-0.053208209353780414
0.005706874189364461,-0.051529716945143814
0.011078049897001601,-0.048676279850461586
0.011078049897001601,-0.04649423971923399
0.007721065079728388,-0.04666208896009766
0.0023498893720912484,-0.04800488288700694
0.0006713969634546426,-0.04917982757305257
-0.004364080262455177,-0.0473334859235523
-0.009063859006637675,-0.04515144579232471
-0.008392462043183033,-0.044480048828870064
-0.0016784924086366065,-0.041123064011596856
-0.003692683299000534,-0.041123064011596856
-0.003356984817273213,-0.042465857938506144
0.0016784924086366065,-0.040451667048142216
-0.0023498893720912484,-0.03440909437705043
0.003692683299000534,-0.027359426260776684
0.009063859006637675,-0.025009536888685433
0.008392462043183033,-0.028702220187685965
0.008392462043183033,-0.03407339589532311
0.011078049897001601,-0.03508049134050507
0.011078049897001601,-0.03172350652323186
0.007721065079728388,-0.026352330815594724
0.006042572671091783,-0.020309758144502935
0.0023498893720912484,-0.017624170290684367
0.0016784924086366065,-0.019302662699320974
0.0023498893720912484,-0.024338139925230793
0.0010070954451819635,-0.03105210955977722
-0.004364080262455177,-0.03508049134050507
-0.004364080262455177,-0.03659113450827802
-0.0030212863355458916,-0.03440909437705043
-0.004364080262455177,-0.03407339589532311
0.0023498893720912484,-0.03810177767605096
0.0050354772259098195,-0.043472953383688104
0.004364080262455177,-0.04716563668268864
0.0050354772259098195,-0.04783703364614328
0.007049668116273747,-0.048676279850461586
0.009735255970092317,-0.052201113908598454
0.007721065079728388,-0.053208209353780414
0.009735255970092317,-0.050690470740825506
0.009063859006637675,-0.04548714427405204
0.007721065079728388,-0.03978027008468757
0.007721065079728388,-0.03675898374914168
0.005706874189364461,-0.03608758678568704
0.003356984817273213,-0.041123064011596856
0.004364080262455177,-0.04682993820096131
0.003692683299000534,-0.049515526054779886
0.0010070954451819635,-0.04682993820096131
0.003692683299000534,-0.040451667048142216
0.0023498893720912484,-0.037094682230869
-0.0010070954451819635,-0.03810177767605096
-0.0023498893720912484,-0.040451667048142216
-0.0010070954451819635,-0.03860532539864195
0.0050354772259098195,-0.03508049134050507
0.003356984817273213,-0.027023727779049357
0.004364080262455177,-0.020645456626230255
0.005706874189364461,-0.021652552071412222
0.0050354772259098195,-0.024338139925230793
0.0050354772259098195,-0.028366521705958644
0.0023498893720912484,-0.03373769741359579
0.0050354772259098195,-0.037094682230869
0.005706874189364461,-0.03440909437705043
0.0010070954451819635,-0.02668802929732204
-0.003692683299000534,-0.020813305867093918
0.0006713969634546426,-0.018631265735866327
0.006042572671091783,-0.019638361181048294
-0.0003356984817273213,-0.021988250553139542
-0.0003356984817273213,-0.027023727779049357
0.002014190890363927,-0.0323949034866865
0.004364080262455177,-0.036423285267414354
0.006378271152819104,-0.03776607919432364
0.007049668116273747,-0.03910887312123293
0.007049668116273747,-0.03910887312123293
0.0016784924086366065,-0.04145876249332417
-0.0003356984817273213,-0.048508430609597926
0.0023498893720912484,-0.05387960631723506
0.006378271152819104,-0.055390249485008015
0.007049668116273747,-0.0528725108720531
0.007049668116273747,-0.049851224536507206
0.007721065079728388,-0.04582284275577936
0.005706874189364461,-0.041123064011596856
0.003692683299000534,-0.03743038071259632
0.007049668116273747,-0.03776607919432364
0.006378271152819104,-0.04011596856641489
0.006378271152819104,-0.03994811932555123
0.010406652933546959,-0.03910887312123293
0.008392462043183033,-0.03843747615777828
0.0023498893720912484,-0.03675898374914168
-0.0003356984817273213,-0.035751888303959714
0.0010070954451819635,-0.03608758678568704
0.003692683299000534,-0.037094682230869
-0.0003356984817273213,-0.03508049134050507
-0.0016784924086366065,-0.033066300450141146
-0.0030212863355458916,-0.027023727779049357
-0.005706874189364461,-0.01913481345845731
-0.0016784924086366065,-0.014938582436865796
0.0023498893720912484,-0.01359578850995651
0.009063859006637675,-0.01695277332722972
0.006378271152819104,-0.01896696421759365
0.006378271152819104,-0.01896696421759365
0.008392462043183033,-0.020645456626230255
0.006378271152819104,-0.026352330815594724
0.004699778744182497,-0.02937361715114061
0.0050354772259098195,-0.028366521705958644
0.0050354772259098195,-0.02366674296177615
0.010406652933546959,-0.022995345998321506
0.011078049897001601,-0.029037918669413288
0.003692683299000534,-0.03440909437705043
-0.0030212863355458916,-0.03910887312123293
-0.003356984817273213,-0.04213015945677882
-0.0003356984817273213,-0.044815747310597384
-0.0016784924086366065,-0.043808651865415424
-0.007049668116273747,-0.040451667048142216
-0.004364080262455177,-0.04145876249332417
-0.0050354772259098195,-0.04716563668268864
-0.003692683299000534,-0.054551003280689715
0.0003356984817273213,-0.05656519417105363
-0.0003356984817273213,-0.053208209353780414
-0.0016784924086366065,-0.04716563668268864
0.003692683299000534,-0.042465857938506144
0.0050354772259098195,-0.040451667048142216
0.008392462043183033,-0.04011596856641489
0.010406652933546959,-0.0426337071793698
0.011749446860456245,-0.04682993820096131
0.010406652933546959,-0.04783703364614328
0.009735255970092317,-0.04615854123750667
0.010070954451819639,-0.042465857938506144
0.007385366598001068,-0.03944457160296025
0.0023498893720912484,-0.040451667048142216
-0.0016784924086366065,-0.043305104142824444
-0.003356984817273213,-0.04582284275577936
-0.0016784924086366065,-0.041794460975051496
-0.0003356984817273213,-0.03440909437705043
0.0023498893720912484,-0.03105210955977722
-0.0030212863355458916,-0.02719157701991302
-0.0016784924086366065,-0.02333104448004883
-0.0030212863355458916,-0.020309758144502935
-0.0003356984817273213,-0.019302662699320974
0.0023498893720912484,-0.020309758144502935
0.003692683299000534,-0.02265964751659419
0.0016784924086366065,-0.02719157701991302
0.0050354772259098195,-0.029709315632867935
0.008392462043183033,-0.03054856183718624
0.004364080262455177,-0.026352330815594724
0.006378271152819104,-0.01913481345845731
0.009735255970092317,-0.01695277332722972
0.011413748378728923,-0.019806210421911954
0.011749446860456245,-0.028366521705958644
0.011749446860456245,-0.03843747615777828
0.007049668116273747,-0.04515144579232471
0.005706874189364461,-0.044480048828870064
0.004364080262455177,-0.040451667048142216
0.0010070954451819635,-0.03810177767605096
0.0003356984817273213,-0.041794460975051496
-0.002014190890363927,-0.048508430609597926
-0.0016784924086366065,-0.0528725108720531
-0.0010070954451819635,-0.05387960631723506
0.0010070954451819635,-0.049851224536507206
0.0023498893720912484,-0.041794460975051496
0.003692683299000534,-0.036423285267414354
0.0023498893720912484,-0.037094682230869
-0.0030212863355458916,-0.03910887312123293
-0.0016784924086366065,-0.03910887312123293
0.0010070954451819635,-0.036423285267414354
0.0050354772259098195,-0.03608758678568704
0.0050354772259098195,-0.042465857938506144
0.007049668116273747,-0.048508430609597926
0.009063859006637675,-0.049851224536507206
0.007721065079728388,-0.04414435034714275
-0.0010070954451819635,-0.0387731746395056
0.002014190890363927,-0.03659113450827802
0.004699778744182497,-0.03373769741359579
0.0016784924086366065,-0.02937361715114061
0.0003356984817273213,-0.024673838406958113
0.006378271152819104,-0.024338139925230793
0.003356984817273213,-0.024338139925230793
0.003356984817273213,-0.022323949034866862
0.0030212863355458916,-0.021652552071412222
0.0016784924086366065,-0.022995345998321506
0.0003356984817273213,-0.027023727779049357
-0.0016784924086366065,-0.028702220187685965
-0.003356984817273213,-0.027695124742504008
-0.0030212863355458916,-0.024673838406958113
-0.0003356984817273213,-0.021652552071412222
-0.0023498893720912484,-0.020309758144502935
0.0023498893720912484,-0.019638361181048294
0.0050354772259098195,-0.022323949034866862
0.0050354772259098195,-0.029037918669413288
0.005706874189364461,-0.035248340581368734
0.0050354772259098195,-0.03810177767605096
0.005706874189364461,-0.03776607919432364
0.007721065079728388,-0.03843747615777828
0.008392462043183033,-0.04129091325246051
0.003356984817273213,-0.04414435034714275
0.0010070954451819635,-0.04582284275577936
0.0050354772259098195,-0.04582284275577936
-0.0003356984817273213,-0.04515144579232471
-0.0010070954451819635,-0.04783703364614328
-0.0003356984817273213,-0.04783703364614328
0.0013427939269092851,-0.044480048828870064
0.004364080262455177,-0.036423285267414354
0.003692683299000534,-0.03205920500495917
0.0003356984817273213,-0.03508049134050507
0.003692683299000534,-0.03810177767605096
0.0010070954451819635,-0.04213015945677882
0.003356984817273213,-0.0481727321278706
0.0030212863355458916,-0.05119401846341649
-0.0010070954451819635,-0.04750133516441596
-0.0003356984817273213,-0.03843747615777828
0.0050354772259098195,-0.03105210955977722
0.006378271152819104,-0.028366521705958644
0.0050354772259098195,-0.030716411078049892
0.006378271152819104,-0.03054856183718624
0.006378271152819104,-0.028030823224231328
0.006378271152819104,-0.026352330815594724
0.0030212863355458916,-0.026352330815594724
0.0010070954451819635,-0.028366521705958644
0.0030212863355458916,-0.029709315632867935
-0.0003356984817273213,-0.03105210955977722
-0.0010070954451819635,-0.03172350652323186
0.0023498893720912484,-0.0323949034866865
0.009735255970092317,-0.028702220187685965
0.007721065079728388,-0.021652552071412222
0.007721065079728388,-0.019974059662775615
0.010406652933546959,-0.02366674296177615
0.008392462043183033,-0.028366521705958644
0.0023498893720912484,-0.0323949034866865
0.004364080262455177,-0.036423285267414354
0.0023498893720912484,-0.04213015945677882
0.006378271152819104,-0.04666208896009766
0.003692683299000534,-0.04783703364614328
0.0050354772259098195,-0.04783703364614328
0.006378271152819104,-0.049011978332188906
0.010406652933546959,-0.050186923018234526
0.007721065079728388,-0.050186923018234526
0.0050354772259098195,-0.04783703364614328
0.009063859006637675,-0.04649423971923399
0.0050354772259098195,-0.04615854123750667
0.0023498893720912484,-0.04716563668268864
-0.0003356984817273213,-0.043472953383688104
-0.0023498893720912484,-0.037262531471732654
-0.004699778744182497,-0.033401998931868467
-0.0030212863355458916,-0.032730601968413826
0.0010070954451819635,-0.03776607919432364
0.0013427939269092851,-0.042465857938506144
0.0030212863355458916,-0.04582284275577936
0.0016784924086366065,-0.042801556420233464
0.0023498893720912484,-0.035416189822232394
0.0030212863355458916,-0.029709315632867935
0.0023498893720912484,-0.02584878309300374
0.0050354772259098195,-0.024338139925230793
0.003692683299000534,-0.025680933852140077
0.003692683299000534,-0.027023727779049357
0.007049668116273747,-0.025009536888685433
0.0023498893720912484,-0.020309758144502935
0.004364080262455177,-0.021652552071412222
0.003692683299000534,-0.027023727779049357
0.0003356984817273213,-0.03138780804150454
-0.0003356984817273213,-0.03138780804150454
-0.0030212863355458916,-0.030380712596322572
0.002014190890363927,-0.029709315632867935
-0.0016784924086366065,-0.03172350652323186
-0.0050354772259098195,-0.032730601968413826
0.0030212863355458916,-0.03440909437705043
0.004364080262455177,-0.0323949034866865
0.007049668116273747,-0.027359426260776684
0.013092240787365528,-0.02668802929732204
0.0157778286411841,-0.030716411078049892
0.012756542305638208,-0.0387731746395056
0.011078049897001601,-0.04548714427405204
0.007049668116273747,-0.049851224536507206
0.0016784924086366065,-0.049851224536507206
0.0010070954451819635,-0.04917982757305257
-0.0016784924086366065,-0.0520332646677348
-0.0016784924086366065,-0.057236591134508276
0.0016784924086366065,-0.05992217898832684
0.0050354772259098195,-0.05555809872587166
0.0010070954451819635,-0.04917982757305257
-0.0003356984817273213,-0.040451667048142216
0.0010070954451819635,-0.035248340581368734
