EMG Sensor 0,EMG Sensor 1
0.0,0.0
0.0,0.0
0.0,0.0
0.0,0.0
0.0,0.0
0.0,0.0
0.0,0.0
0.0,0.0
0.0,0.0
0.0,0.0
0.0,0.0
0.0,0.0
0.0,0.0
0.0,0.0
0.0,0.0
0.0,0.0
0.0,0.0
0.0,0.0
0.0,0.0
0.0,0.0
0.0,0.0
0.0,0.0
0.0,0.0
0.0,0.0
0.0,0.0
0.0,0.0
0.0,0.0
0.0,0.0
0.0,0.0
0.0,0.0
0.0,0.0
0.0,0.0
0.0,0.0
0.0,0.0
0.0,0.0
0.0,0.0
0.0,0.0
0.0,0.0
0.0,0.0
0.0,0.0
0.0,0.0
0.0,0.0
0.0,0.0
0.0,0.0
0.0,0.0
0.0,0.0
0.0,0.0
0.0,0.0
0.0,0.0
0.0,0.0
0.0,0.0
0.0,0.0
0.0,0.0
0.0,0.0
0.0,0.0
0.0,0.0
0.0,0.0
0.0,0.0
0.0,0.0
0.0,0.0
0.0,0.0
0.0,0.0
0.0,0.0
0.0,0.0
0.0,0.0
0.0,0.0
0.0,0.0
0.0,0.0
0.0,0.0
0.0,0.0
0.0,0.0
0.0,0.0
0.0,0.0
0.0,0.0
0.0,0.0
0.0,0.0
0.0,0.0
0.0,0.0
0.0,0.0
0.0,0.0
0.0,0.0
0.0,0.0
0.0,0.0
0.0,0.0
0.0,0.0
0.0,0.0
0.0,0.0
0.0,0.0
0.0,0.0
0.0,0.0
0.0,0.0
0.0,0.0
0.0,0.0
0.0,0.0
0.0,0.0
0.0,0.0
0.0,0.0
0.0,0.0
0.0,0.0
0.0,0.0
0.0,0.0
0.0,0.0
0.0,0.0
0.0,0.0
0.0,0.0
0.0,0.0
0.0,0.0
0.0,0.0
0.0,0.0
0.0,0.0
0.0,0.0
0.0,0.0
0.0,0.0
0.0,0.0
0.0,0.0
0.0,0.0
0.0,0.0
0.0,0.0
0.0,0.0
-0.008392462043183033,0.0
0.007721065079728388,0.0
0.009735255970092317,0.0
0.013092240787365528,0.0
0.007721065079728388,0.0
0.0023498893720912484,0.0
0.0006713969634546426,0.0
-0.0003356984817273213,0.0
-0.0016784924086366065,0.0
-0.0003356984817273213,0.0
-0.0003356984817273213,0.0
-0.0003356984817273213,0.0
-0.0016784924086366065,0.0
-0.0016784924086366065,0.0
-0.0003356984817273213,0.0
0.002014190890363927,0.0
0.006378271152819104,0.0
0.005706874189364461,0.0
0.0050354772259098195,0.0
0.006378271152819104,0.0
0.003692683299000534,0.0
0.0010070954451819635,0.0
-0.0030212863355458916,0.0
-0.0050354772259098195,0.0
-0.0016784924086366065,0.0
0.0010070954451819635,0.0
0.0023498893720912484,0.0
0.0010070954451819635,0.0
0.0010070954451819635,0.0
0.0016784924086366065,0.0
0.0050354772259098195,0.0
0.010406652933546959,0.0
0.007385366598001068,0.0
0.008728160524910353,0.0
0.011749446860456245,0.0
0.011749446860456245,0.0
0.010406652933546959,0.0
0.009063859006637675,0.0
0.011749446860456245,0.0
0.01376363775082017,0.0
0.007721065079728388,0.0
0.0010070954451819635,0.0
0.004364080262455177,0.0
0.0050354772259098195,0.0
0.006042572671091783,0.0
0.006378271152819104,0.0
0.009063859006637675,0.0
0.005706874189364461,0.0
0.0016784924086366065,0.0
-0.0016784924086366065,0.0
-0.0030212863355458916,0.0
-0.0003356984817273213,0.0
-0.0016784924086366065,0.0
-0.0016784924086366065,0.0
0.0016784924086366065,0.0
0.0010070954451819635,0.0
0.0050354772259098195,0.0
0.003356984817273213,0.0
0.004364080262455177,0.0
0.006713969634546426,0.0
0.008392462043183033,0.0
0.0050354772259098195,0.0
0.0050354772259098195,0.0
0.006378271152819104,0.0
0.004364080262455177,0.0
0.0050354772259098195,0.0
0.006378271152819104,0.0
0.006378271152819104,0.0
0.003692683299000534,0.0
0.003692683299000534,0.0
0.0013427939269092851,0.0
-0.0016784924086366065,0.0
-0.0003356984817273213,0.0
-0.0006713969634546426,0.0
-0.0030212863355458916,0.0
-0.0010070954451819635,0.0
-0.0003356984817273213,0.0
-0.0003356984817273213,0.0
-0.0003356984817273213,0.0
-0.0010070954451819635,0.0
0.006378271152819104,0.0
0.004364080262455177,0.0
0.003692683299000534,0.0
0.004364080262455177,0.0
0.004364080262455177,0.0
0.0050354772259098195,0.0
0.007721065079728388,0.0
0.006378271152819104,0.0
0.0023498893720912484,0.0
0.0016784924086366065,0.0
-0.0026855878538185702,0.0
-0.0003356984817273213,0.0
-0.0003356984817273213,0.0
-0.002014190890363927,0.0
-0.0003356984817273213,0.0
-0.0010070954451819635,0.0
0.0010070954451819635,0.0
0.004364080262455177,0.0
0.005706874189364461,0.0
0.007721065079728388,0.0
0.005706874189364461,0.0
0.004699778744182497,0.0
0.003692683299000534,0.0
0.003692683299000534,0.0
0.006042572671091783,0.0
0.007721065079728388,0.0
0.007721065079728388,0.0
0.006378271152819104,0.0
0.0050354772259098195,0.0
0.003692683299000534,0.0
-0.0003356984817273213,0.0
0.0010070954451819635,0.0
0.0006713969634546426,0.0
-0.0006713969634546426,0.0
-0.0023498893720912484,0.0
-0.0023498893720912484,0.0
-0.0016784924086366065,0.0
-0.0023498893720912484,0.0
-0.0016784924086366065,0.0
0.0023498893720912484,0.0
0.004028381780727854,0.0
0.0023498893720912484,0.0
0.0016784924086366065,0.0
0.0023498893720912484,0.0
0.004364080262455177,0.0
0.003692683299000534,0.0
0.0050354772259098195,0.0
0.006378271152819104,0.0
0.007049668116273747,0.0
0.009063859006637675,0.0
0.0050354772259098195,0.0
0.0050354772259098195,0.0
0.003692683299000534,0.0
0.0006713969634546426,0.0
-0.0006713969634546426,0.0
-0.003356984817273213,0.0
-0.007721065079728388,0.0
0.002014190890363927,-0.05622949568932631
0.008392462043183033,-0.052201113908598454
0.004364080262455177,-0.048508430609597926
0.007721065079728388,-0.04011596856641489
0.011749446860456245,-0.033401998931868467
0.011749446860456245,-0.029037918669413288
0.010406652933546959,-0.022995345998321506
0.004699778744182497,-0.016784924086366067
0.0050354772259098195,-0.01359578850995651
0.007721065079728388,-0.012252994583047227
0.007385366598001068,-0.012252994583047227
0.007721065079728388,-0.014938582436865796
0.009735255970092317,-0.019974059662775615
0.006378271152819104,-0.025680933852140077
0.0023498893720912484,-0.025345235370412753
0.0006713969634546426,-0.020645456626230255
-0.0006713969634546426,-0.017288471808957043
0.002014190890363927,-0.017624170290684367
0.0023498893720912484,-0.019638361181048294
-0.0003356984817273213,-0.022995345998321506
-0.0010070954451819635,-0.025680933852140077
0.0023498893720912484,-0.028366521705958644
0.003356984817273213,-0.0323949034866865
0.0016784924086366065,-0.037262531471732654
0.004364080262455177,-0.04313725490196078
0.005706874189364461,-0.04716563668268864
0.0050354772259098195,-0.05085831998168917
0.004699778744182497,-0.05656519417105363
0.004364080262455177,-0.06126497291523613
0.003692683299000534,-0.06361486228732739
0.004699778744182497,-0.06327916380560006
0.003692683299000534,-0.05857938506141757
0.004364080262455177,-0.050019073777370866
0.002014190890363927,-0.04313725490196078
0.004364080262455177,-0.04011596856641489
0.0030212863355458916,-0.03810177767605096
0.0010070954451819635,-0.03675898374914168
0.0006713969634546426,-0.03508049134050507
-0.0006713969634546426,-0.035751888303959714
0.0003356984817273213,-0.041123064011596856
0.0016784924086366065,-0.04649423971923399
-0.0023498893720912484,-0.04649423971923399
-0.0023498893720912484,-0.04213015945677882
0.0010070954451819635,-0.036423285267414354
0.0023498893720912484,-0.030045014114595252
0.0050354772259098195,-0.02366674296177615
0.0023498893720912484,-0.01829556725413901
0.003692683299000534,-0.01527428091859312
0.007385366598001068,-0.01292439154650187
0.008728160524910353,-0.01359578850995651
0.009063859006637675,-0.017288471808957043
0.009063859006637675,-0.021988250553139542
0.007385366598001068,-0.02400244144350347
0.0050354772259098195,-0.021652552071412222
0.006713969634546426,-0.01896696421759365
0.006378271152819104,-0.01695277332722972
0.0050354772259098195,-0.017792019531548024
0.006378271152819104,-0.020309758144502935
0.006042572671091783,-0.023834592202639806
0.006378271152819104,-0.026184481574731057
0.006378271152819104,-0.027695124742504008
0.0023498893720912484,-0.03138780804150454
0.004364080262455177,-0.037094682230869
-0.0016784924086366065,-0.04313725490196078
-0.0030212863355458916,-0.048844129091325246
-0.004699778744182497,-0.05522240024414436
-0.003692683299000534,-0.059250782024872196
-0.0003356984817273213,-0.06260776684214542
0.0006713969634546426,-0.06630045014114595
0.007049668116273747,-0.06596475165941862
0.0016784924086366065,-0.0639505607690547
0.0023498893720912484,-0.057572289616235596
0.008392462043183033,-0.048508430609597926
0.010406652933546959,-0.043808651865415424
0.007721065079728388,-0.044480048828870064
0.007721065079728388,-0.04548714427405204
0.007385366598001068,-0.04313725490196078
0.006378271152819104,-0.041123064011596856
0.006378271152819104,-0.04078736552986953
0.0050354772259098195,-0.03978027008468757
0.006042572671091783,-0.03978027008468757
0.007049668116273747,-0.03910887312123293
0.006378271152819104,-0.03860532539864195
0.003692683299000534,-0.033401998931868467
0.0010070954451819635,-0.027023727779049357
0.0010070954451819635,-0.020309758144502935
-0.0003356984817273213,-0.014602883955138474
-0.0030212863355458916,-0.010910200656137941
0.0003356984817273213,-0.011078049897001601
0.005706874189364461,-0.01560997940032044
0.008728160524910353,-0.022323949034866862
0.009063859006637675,-0.027023727779049357
0.005706874189364461,-0.027023727779049357
0.003692683299000534,-0.0213168535896849
0.004364080262455177,-0.01359578850995651
-0.0003356984817273213,-0.010910200656137941
-0.0030212863355458916,-0.014938582436865796
-0.004364080262455177,-0.020981155107957578
-0.004364080262455177,-0.024673838406958113
-0.006378271152819104,-0.02668802929732204
-0.005706874189364461,-0.0323949034866865
-0.004364080262455177,-0.03910887312123293
-0.003692683299000534,-0.04582284275577936
-0.0016784924086366065,-0.048508430609597926
-0.0030212863355458916,-0.048844129091325246
0.0003356984817273213,-0.051865415426871134
0.0010070954451819635,-0.05790798809796292
0.0010070954451819635,-0.06630045014114595
0.003692683299000534,-0.06999313344014649
0.004364080262455177,-0.06797894254978255
0.007721065079728388,-0.060593575951781484
0.013092240787365528,-0.052201113908598454
0.014099336232547494,-0.04716563668268864
0.012420843823910887,-0.04582284275577936
0.011749446860456245,-0.04783703364614328
0.010070954451819639,-0.048508430609597926
0.007721065079728388,-0.04582284275577936
0.006378271152819104,-0.040451667048142216
0.006378271152819104,-0.03776607919432364
0.0013427939269092851,-0.04078736552986953
0.0030212863355458916,-0.043640802624551764
0.002014190890363927,-0.04582284275577936
-0.0030212863355458916,-0.04582284275577936
0.002014190890363927,-0.040451667048142216
-0.0003356984817273213,-0.030380712596322572
-0.0003356984817273213,-0.01829556725413901
-0.0010070954451819635,-0.009903105210955977
0.0010070954451819635,-0.008224612802319372
0.0016784924086366065,-0.010910200656137941
0.0023498893720912484,-0.014267185473411156
0.006378271152819104,-0.016617074845502403
0.0050354772259098195,-0.019302662699320974
0.007385366598001068,-0.022323949034866862
0.007385366598001068,-0.022323949034866862
0.006042572671091783,-0.021988250553139542
0.0050354772259098195,-0.017624170290684367
0.007721065079728388,-0.01376363775082017
0.008392462043183033,-0.01695277332722972
0.0050354772259098195,-0.024673838406958113
0.0030212863355458916,-0.03407339589532311
0.007721065079728388,-0.03910887312123293
0.0003356984817273213,-0.041794460975051496
0.0016784924086366065,-0.0426337071793698
0.003692683299000534,-0.043808651865415424
0.0023498893720912484,-0.04750133516441596
0.002014190890363927,-0.054551003280689715
0.0010070954451819635,-0.06529335469596398
-0.0003356984817273213,-0.07066453040360113
-0.0016784924086366065,-0.06697184710460058
-0.0003356984817273213,-0.05857938506141757
-0.0003356984817273213,-0.05085831998168917
-0.0010070954451819635,-0.04515144579232471
0.0050354772259098195,-0.041794460975051496
0.0050354772259098195,-0.042465857938506144
0.007049668116273747,-0.043472953383688104
0.011413748378728923,-0.044815747310597384
0.007721065079728388,-0.044815747310597384
0.0050354772259098195,-0.041794460975051496
0.006713969634546426,-0.041123064011596856
0.0050354772259098195,-0.042465857938506144
0.004364080262455177,-0.04313725490196078
0.007049668116273747,-0.03910887312123293
0.004364080262455177,-0.03105210955977722
-0.0006713969634546426,-0.025345235370412753
0.0010070954451819635,-0.025345235370412753
-0.0010070954451819635,-0.02265964751659419
-0.003356984817273213,-0.01628137636377508
0.0016784924086366065,-0.010406652933546959
-0.0003356984817273213,-0.007217517357137408
-0.0010070954451819635,-0.006881818875410085
-0.0003356984817273213,-0.009231708247501335
-0.0010070954451819635,-0.01628137636377508
0.0010070954451819635,-0.01695277332722972
-0.0003356984817273213,-0.01527428091859312
0.0003356984817273213,-0.012252994583047227
-0.004364080262455177,-0.010238803692683297
-0.0023498893720912484,-0.01359578850995651
0.0010070954451819635,-0.020309758144502935
0.0016784924086366065,-0.029709315632867935
0.0023498893720912484,-0.035751888303959714
0.003692683299000534,-0.03978027008468757
0.0030212863355458916,-0.041794460975051496
0.0050354772259098195,-0.043808651865415424
0.009735255970092317,-0.04716563668268864
0.008392462043183033,-0.0528725108720531
0.006378271152819104,-0.062272068360418105
0.0050354772259098195,-0.06965743495841917
-0.0016784924086366065,-0.0694895857175555
-0.0016784924086366065,-0.06411841000991834
-0.0016784924086366065,-0.054047455558098714
0.0010070954451819635,-0.04599069199664301
0.0003356984817273213,-0.04313725490196078
-0.0003356984817273213,-0.043472953383688104
0.0023498893720912484,-0.043808651865415424
0.007721065079728388,-0.042465857938506144
0.010070954451819639,-0.03978027008468757
0.009735255970092317,-0.041794460975051496
0.006378271152819104,-0.04750133516441596
0.004364080262455177,-0.05085831998168917
0.0050354772259098195,-0.0473334859235523
0.007721065079728388,-0.04129091325246051
0.008392462043183033,-0.03440909437705043
0.006378271152819104,-0.0260166323338674
0.0050354772259098195,-0.022323949034866862
0.0050354772259098195,-0.02400244144350347
0.0023498893720912484,-0.025680933852140077
0.003692683299000534,-0.020645456626230255
0.0050354772259098195,-0.012252994583047227
0.004364080262455177,-0.009567406729228655
0.003692683299000534,-0.01359578850995651
-0.0003356984817273213,-0.021652552071412222
-0.005706874189364461,-0.025680933852140077
-0.0030212863355458916,-0.02400244144350347
-0.0003356984817273213,-0.01829556725413901
-0.0016784924086366065,-0.01560997940032044
0.003692683299000534,-0.014938582436865796
0.0050354772259098195,-0.016617074845502403
0.005706874189364461,-0.020477607385366595
0.004364080262455177,-0.025680933852140077
0.007049668116273747,-0.03105210955977722
0.009063859006637675,-0.03508049134050507
0.008728160524910353,-0.035416189822232394
0.0050354772259098195,-0.036423285267414354
0.0030212863355458916,-0.04061951628900587
0.0016784924086366065,-0.04582284275577936
0.002014190890363927,-0.049851224536507206
0.0023498893720912484,-0.05354390783550774
0.003356984817273213,-0.05790798809796292
0.0050354772259098195,-0.061936369878690785
0.006378271152819104,-0.06092927443350881
0.0050354772259098195,-0.05941863126573587
0.0023498893720912484,-0.053208209353780414
0.0023498893720912484,-0.044480048828870064
0.0023498893720912484,-0.03978027008468757
0.0016784924086366065,-0.04129091325246051
0.0050354772259098195,-0.044480048828870064
0.010070954451819639,-0.043808651865415424
0.005706874189364461,-0.043976501106279084
0.003692683299000534,-0.044815747310597384
0.003356984817273213,-0.04313725490196078
0.0016784924086366065,-0.04011596856641489
-0.0003356984817273213,-0.03608758678568704
0.0023498893720912484,-0.03675898374914168
0.0023498893720912484,-0.03608758678568704
0.003692683299000534,-0.030045014114595252
0.007049668116273747,-0.021652552071412222
0.0050354772259098195,-0.01695277332722972
-0.0016784924086366065,-0.019638361181048294
-0.0030212863355458916,-0.025009536888685433
-0.0003356984817273213,-0.028366521705958644
-0.0003356984817273213,-0.03105210955977722
-0.002014190890363927,-0.03105210955977722
0.0016784924086366065,-0.02652018005645838
0.0006713969634546426,-0.017624170290684367
0.0006713969634546426,-0.012588693064774548
0.0050354772259098195,-0.012588693064774548
0.003692683299000534,-0.015442130159456776
0.004364080262455177,-0.017959868772411687
0.004028381780727854,-0.022323949034866862
0.0050354772259098195,-0.030045014114595252
0.008392462043183033,-0.040451667048142216
0.009063859006637675,-0.04750133516441596
0.007721065079728388,-0.052201113908598454
0.006378271152819104,-0.05421530479896238
0.007721065079728388,-0.054551003280689715
0.007721065079728388,-0.05673304341191729
0.004364080262455177,-0.058915083543144876
0.0016784924086366065,-0.05958648050659952
0.002014190890363927,-0.05622949568932631
-0.0010070954451819635,-0.053208209353780414
-0.0016784924086366065,-0.048844129091325246
-0.0003356984817273213,-0.04313725490196078
0.0003356984817273213,-0.03927672236209659
0.003692683299000534,-0.03843747615777828
0.002014190890363927,-0.041962310215915156
-0.0003356984817273213,-0.04615854123750667
-0.0003356984817273213,-0.04917982757305257
0.0003356984817273213,-0.050522621499961846
0.0050354772259098195,-0.04649423971923399
0.0023498893720912484,-0.04078736552986953
0.0006713969634546426,-0.03776607919432364
0.004364080262455177,-0.03860532539864195
0.004364080262455177,-0.03675898374914168
0.0016784924086366065,-0.030045014114595252
0.003692683299000534,-0.021652552071412222
0.004699778744182497,-0.014938582436865796
0.0050354772259098195,-0.01292439154650187
0.005706874189364461,-0.014938582436865796
0.003692683299000534,-0.017624170290684367
0.0010070954451819635,-0.020309758144502935
0.0030212863355458916,-0.020981155107957578
0.003692683299000534,-0.019974059662775615
-0.003356984817273213,-0.020981155107957578
-0.003692683299000534,-0.020645456626230255
0.0016784924086366065,-0.01896696421759365
0.0023498893720912484,-0.017624170290684367
0.003692683299000534,-0.017959868772411687
0.0050354772259098195,-0.021652552071412222
0.008728160524910353,-0.025345235370412753
0.009735255970092317,-0.03373769741359579
0.010070954451819639,-0.04078736552986953
0.010406652933546959,-0.04531929503318838
0.005706874189364461,-0.048844129091325246
0.007721065079728388,-0.053208209353780414
0.006378271152819104,-0.056900892652780956
0.004364080262455177,-0.058915083543144876
0.009063859006637675,-0.05992217898832684
0.006378271152819104,-0.05790798809796292
0.004364080262455177,-0.05589379720759898
0.0050354772259098195,-0.05387960631723506
-0.0003356984817273213,-0.049851224536507206
0.002014190890363927,-0.044480048828870064
-0.0023498893720912484,-0.04011596856641489
-0.004364080262455177,-0.042465857938506144
0.0010070954451819635,-0.04783703364614328
-0.0016784924086366065,-0.0520332646677348
-0.004364080262455177,-0.050522621499961846
0.0003356984817273213,-0.044480048828870064
-0.0003356984817273213,-0.03927672236209659
-0.0003356984817273213,-0.037094682230869
0.003356984817273213,-0.03440909437705043
0.003692683299000534,-0.029037918669413288
0.0050354772259098195,-0.023163195239185166
0.003692683299000534,-0.01829556725413901
-0.0013427939269092851,-0.017288471808957043
0.002014190890363927,-0.01695277332722972
0.0010070954451819635,-0.01695277332722972
-0.0016784924086366065,-0.017624170290684367
0.005706874189364461,-0.018631265735866327
0.003356984817273213,-0.019974059662775615
0.0003356984817273213,-0.020309758144502935
0.004364080262455177,-0.021988250553139542
0.0050354772259098195,-0.021652552071412222
0.0050354772259098195,-0.020981155107957578
0.0023498893720912484,-0.019302662699320974
0.0010070954451819635,-0.017624170290684367
0.002014190890363927,-0.020477607385366595
0.0016784924086366065,-0.025680933852140077
0.002014190890363927,-0.03508049134050507
0.009063859006637675,-0.04414435034714275
0.007721065079728388,-0.051865415426871134
0.006378271152819104,-0.05253681239032577
0.009063859006637675,-0.05253681239032577
0.009063859006637675,-0.05522240024414436
0.004364080262455177,-0.05656519417105363
0.003692683299000534,-0.059250782024872196
0.006378271152819104,-0.06327916380560006
0.005706874189364461,-0.0639505607690547
0.0050354772259098195,-0.05992217898832684
0.0050354772259098195,-0.051529716945143814
0.003692683299000534,-0.04313725490196078
-0.0003356984817273213,-0.03776607919432364
0.0016784924086366065,-0.035751888303959714
0.0010070954451819635,-0.03776607919432364
0.0023498893720912484,-0.03843747615777828
0.003356984817273213,-0.04061951628900587
0.003356984817273213,-0.044815747310597384
0.0010070954451819635,-0.04515144579232471
-0.0003356984817273213,-0.042465857938506144
0.0006713969634546426,-0.035416189822232394
-0.0023498893720912484,-0.028366521705958644
0.0016784924086366065,-0.02265964751659419
0.0050354772259098195,-0.017624170290684367
0.007721065079728388,-0.014267185473411156
0.007049668116273747,-0.014938582436865796
0.007385366598001068,-0.01829556725413901
0.007049668116273747,-0.01695277332722972
0.009735255970092317,-0.013931486991683832
0.010406652933546959,-0.015442130159456776
0.009735255970092317,-0.019302662699320974
0.005706874189364461,-0.020981155107957578
0.0050354772259098195,-0.01896696421759365
0.003692683299000534,-0.01628137636377508
0.003692683299000534,-0.01292439154650187
0.0010070954451819635,-0.009567406729228655
-0.0030212863355458916,-0.010910200656137941
-0.0003356984817273213,-0.01628137636377508
-0.004364080262455177,-0.025680933852140077
-0.005706874189364461,-0.036423285267414354
-0.0006713969634546426,-0.044480048828870064
-0.0003356984817273213,-0.048508430609597926
0.0003356984817273213,-0.048508430609597926
0.003692683299000534,-0.05119401846341649
0.003356984817273213,-0.055390249485008015
0.004364080262455177,-0.059250782024872196
0.0050354772259098195,-0.05992217898832684
0.0050354772259098195,-0.057236591134508276
0.007385366598001068,-0.05488670176241703
0.004699778744182497,-0.05522240024414436
0.006042572671091783,-0.05253681239032577
0.0050354772259098195,-0.050522621499961846
0.0050354772259098195,-0.04649423971923399
0.009735255970092317,-0.03944457160296025
0.004364080262455177,-0.033066300450141146
0.0023498893720912484,-0.03508049134050507
0.006378271152819104,-0.04531929503318838
0.0010070954451819635,-0.05387960631723506
-0.0030212863355458916,-0.05790798809796292
-0.0016784924086366065,-0.05421530479896238
-0.0003356984817273213,-0.04649423971923399
-0.0003356984817273213,-0.03860532539864195
0.0010070954451819635,-0.033401998931868467
0.004699778744182497,-0.030716411078049892
0.0016784924086366065,-0.025680933852140077
-0.0003356984817273213,-0.020981155107957578
-0.0003356984817273213,-0.01829556725413901
0.003692683299000534,-0.017624170290684367
0.006378271152819104,-0.01896696421759365
0.004699778744182497,-0.021652552071412222
0.006378271152819104,-0.025177386129549097
0.004364080262455177,-0.027023727779049357
0.0016784924086366065,-0.025680933852140077
0.0016784924086366065,-0.022995345998321506
0.0023498893720912484,-0.01913481345845731
-0.002014190890363927,-0.017792019531548024
-0.004699778744182497,-0.021652552071412222
0.0010070954451819635,-0.027695124742504008
0.006378271152819104,-0.03457694361791409
0.0050354772259098195,-0.04061951628900587
0.005706874189364461,-0.04666208896009766
0.0050354772259098195,-0.05387960631723506
0.0030212863355458916,-0.05874723430228122
-0.0010070954451819635,-0.06260776684214542
-0.0003356984817273213,-0.060593575951781484
0.0050354772259098195,-0.05874723430228122
0.007385366598001068,-0.059250782024872196
0.006378271152819104,-0.05824368657969024
0.004699778744182497,-0.05790798809796292
0.006378271152819104,-0.05522240024414436
0.006378271152819104,-0.051865415426871134
0.006378271152819104,-0.044815747310597384
0.004028381780727854,-0.036423285267414354
0.0030212863355458916,-0.03121995880064088
0.007721065079728388,-0.0323949034866865
0.009063859006637675,-0.041123064011596856
0.006713969634546426,-0.04716563668268864
0.007049668116273747,-0.044480048828870064
0.0010070954451819635,-0.03843747615777828
0.0010070954451819635,-0.03172350652323186
-0.0016784924086366065,-0.02584878309300374
-0.006378271152819104,-0.022323949034866862
0.0003356984817273213,-0.021652552071412222
0.004699778744182497,-0.020981155107957578
0.0023498893720912484,-0.020309758144502935
0.003692683299000534,-0.01896696421759365
0.0023498893720912484,-0.014938582436865796
0.0050354772259098195,-0.012756542305638208
0.010406652933546959,-0.014938582436865796
0.007721065079728388,-0.017624170290684367
0.0050354772259098195,-0.018631265735866327
0.007385366598001068,-0.016617074845502403
0.004364080262455177,-0.01594567788204776
0.003356984817273213,-0.020309758144502935
0.002014190890363927,-0.02265964751659419
0.0050354772259098195,-0.021652552071412222
0.006378271152819104,-0.020477607385366595
0.0010070954451819635,-0.022323949034866862
0.0016784924086366065,-0.029037918669413288
0.0030212863355458916,-0.037094682230869
-0.004699778744182497,-0.044480048828870064
-0.005706874189364461,-0.04716563668268864
-0.0030212863355458916,-0.05119401846341649
-0.006378271152819104,-0.05354390783550774
-0.006042572671091783,-0.053208209353780414
-0.0003356984817273213,-0.05387960631723506
0.0010070954451819635,-0.054551003280689715
0.0023498893720912484,-0.05673304341191729
0.0050354772259098195,-0.05589379720759898
0.0050354772259098195,-0.0528725108720531
0.006042572671091783,-0.048508430609597926
0.009063859006637675,-0.04213015945677882
0.009063859006637675,-0.036423285267414354
0.011413748378728923,-0.0323949034866865
0.014435034714274816,-0.03508049134050507
0.009063859006637675,-0.042801556420233464
0.0050354772259098195,-0.05119401846341649
0.004364080262455177,-0.050522621499961846
0.0016784924086366065,-0.040451667048142216
0.0023498893720912484,-0.03105210955977722
0.0023498893720912484,-0.024673838406958113
0.0050354772259098195,-0.020645456626230255
0.006378271152819104,-0.01695277332722972
0.0050354772259098195,-0.012420843823910887
0.0023498893720912484,-0.009903105210955977
0.0023498893720912484,-0.013931486991683832
-0.0016784924086366065,-0.01829556725413901
-0.0030212863355458916,-0.02366674296177615
0.006378271152819104,-0.023834592202639806
0.011078049897001601,-0.021652552071412222
0.010070954451819639,-0.020309758144502935
0.007385366598001068,-0.018631265735866327
0.003692683299000534,-0.019638361181048294
0.003692683299000534,-0.02333104448004883
0.003692683299000534,-0.029037918669413288
0.0023498893720912484,-0.030045014114595252
0.004364080262455177,-0.0260166323338674
0.0050354772259098195,-0.024673838406958113
0.006042572671091783,-0.029709315632867935
0.004364080262455177,-0.042465857938506144
0.0010070954451819635,-0.052201113908598454
-0.0023498893720912484,-0.05673304341191729
-0.0016784924086366065,-0.05857938506141757
-0.0006713969634546426,-0.060593575951781484
-0.0003356984817273213,-0.061936369878690785
-0.0030212863355458916,-0.060761425192645144
-0.0023498893720912484,-0.060593575951781484
-0.005706874189364461,-0.061936369878690785
-0.0050354772259098195,-0.060761425192645144
0.0010070954451819635,-0.05622949568932631
0.0050354772259098195,-0.048508430609597926
0.007049668116273747,-0.042465857938506144
0.008392462043183033,-0.04078736552986953
0.012420843823910887,-0.040451667048142216
0.009063859006637675,-0.04078736552986953
0.0050354772259098195,-0.041794460975051496
0.0023498893720912484,-0.044815747310597384
-0.0016784924086366065,-0.04917982757305257
-0.0010070954451819635,-0.049851224536507206
0.003356984817273213,-0.04582284275577936
0.0050354772259098195,-0.037094682230869
0.0050354772259098195,-0.027359426260776684
0.004364080262455177,-0.019806210421911954
-0.0010070954451819635,-0.015106431677729458
-0.0023498893720912484,-0.0157778286411841
-0.0023498893720912484,-0.01829556725413901
-0.0003356984817273213,-0.020981155107957578
0.003692683299000534,-0.020981155107957578
0.003692683299000534,-0.01896696421759365
0.002014190890363927,-0.017624170290684367
0.0016784924086366065,-0.017792019531548024
0.005706874189364461,-0.01896696421759365
0.009735255970092317,-0.019638361181048294
0.010406652933546959,-0.022995345998321506
0.012420843823910887,-0.025009536888685433
0.010406652933546959,-0.02333104448004883
0.008392462043183033,-0.024338139925230793
0.010406652933546959,-0.027695124742504008
0.009063859006637675,-0.035416189822232394
0.006378271152819104,-0.04515144579232471
0.007049668116273747,-0.05337605859464408
0.0050354772259098195,-0.05824368657969024
0.0006713969634546426,-0.06092927443350881
0.0023498893720912484,-0.062272068360418105
0.0010070954451819635,-0.06092927443350881
-0.0003356984817273213,-0.057572289616235596
-0.0016784924086366065,-0.053208209353780414
-0.0006713969634546426,-0.04716563668268864
0.0010070954451819635,-0.044647898069733724
0.007721065079728388,-0.043305104142824444
0.004364080262455177,-0.04145876249332417
-0.004364080262455177,-0.041794460975051496
-0.0003356984817273213,-0.040451667048142216
0.0006713969634546426,-0.0387731746395056
0.0030212863355458916,-0.04078736552986953
0.003692683299000534,-0.043472953383688104
0.009063859006637675,-0.043808651865415424
0.008392462043183033,-0.03944457160296025
0.010406652933546959,-0.03440909437705043
0.010406652933546959,-0.026352330815594724
0.008728160524910353,-0.01695277332722972
0.007049668116273747,-0.009063859006637675
0.0030212863355458916,-0.006546120393682764
0.003356984817273213,-0.010910200656137941
-0.0010070954451819635,-0.013931486991683832
-0.0006713969634546426,-0.014938582436865796
0.0003356984817273213,-0.014938582436865796
-0.007385366598001068,-0.014267185473411156
-0.005706874189364461,-0.01560997940032044
-0.003356984817273213,-0.01628137636377508
0.0030212863355458916,-0.019638361181048294
0.0016784924086366065,-0.024338139925230793
0.0023498893720912484,-0.027359426260776684
0.006378271152819104,-0.0260166323338674
0.006378271152819104,-0.02366674296177615
0.007721065079728388,-0.02333104448004883
0.0050354772259098195,-0.02853437094682231
0.007721065079728388,-0.036423285267414354
0.011413748378728923,-0.043808651865415424
0.010406652933546959,-0.0481727321278706
0.013092240787365528,-0.05387960631723506
0.007721065079728388,-0.06546120393682765
0.002014190890363927,-0.07553215838864728
0.004364080262455177,-0.07603570611123828
0.0010070954451819635,-0.06797894254978255
-0.0003356984817273213,-0.060593575951781484
-0.0023498893720912484,-0.057236591134508276
-0.003356984817273213,-0.05421530479896238
-0.0016784924086366065,-0.050522621499961846
-0.003692683299000534,-0.0481727321278706
0.0010070954451819635,-0.0473334859235523
0.004699778744182497,-0.04582284275577936
0.004364080262455177,-0.041794460975051496
-0.0003356984817273213,-0.040451667048142216
-0.0003356984817273213,-0.04145876249332417
0.003692683299000534,-0.044480048828870064
0.0023498893720912484,-0.044480048828870064
0.0016784924086366065,-0.040451667048142216
0.004028381780727854,-0.03105210955977722
0.005706874189364461,-0.021652552071412222
0.007049668116273747,-0.01560997940032044
0.005706874189364461,-0.010910200656137941
0.0050354772259098195,-0.010910200656137941
0.003692683299000534,-0.01527428091859312
0.0010070954451819635,-0.0213168535896849
-0.0016784924086366065,-0.022995345998321506
-0.004364080262455177,-0.01896696421759365
-0.0030212863355458916,-0.017959868772411687
-0.0023498893720912484,-0.018631265735866327
-0.0003356984817273213,-0.01628137636377508
0.0010070954451819635,-0.013931486991683832
0.0050354772259098195,-0.014938582436865796
0.004364080262455177,-0.019302662699320974
0.0030212863355458916,-0.024505989166094453
0.008392462043183033,-0.0260166323338674
0.006713969634546426,-0.027359426260776684
0.007049668116273747,-0.028702220187685965
0.007049668116273747,-0.03407339589532311
0.006378271152819104,-0.041123064011596856
0.007721065079728388,-0.04917982757305257
0.006378271152819104,-0.057236591134508276
0.010406652933546959,-0.062272068360418105
0.015106431677729458,-0.06294346532387274
0.009063859006637675,-0.05857938506141757
0.0050354772259098195,-0.051865415426871134
0.006378271152819104,-0.04682993820096131
-0.0010070954451819635,-0.04313725490196078
-0.005706874189364461,-0.04599069199664301
-0.0016784924086366065,-0.050690470740825506
-0.003692683299000534,-0.049347676813916226
0.0010070954451819635,-0.042465857938506144
0.003692683299000534,-0.03826962691691462
0.0003356984817273213,-0.0387731746395056
0.0023498893720912484,-0.041794460975051496
0.0050354772259098195,-0.04515144579232471
0.003692683299000534,-0.048508430609597926
0.0023498893720912484,-0.048844129091325246
-0.0003356984817273213,-0.04313725490196078
-0.005706874189364461,-0.03373769741359579
-0.0016784924086366065,-0.025680933852140077
0.0023498893720912484,-0.020309758144502935
0.0050354772259098195,-0.01695277332722972
0.004364080262455177,-0.014938582436865796
0.005706874189364461,-0.014938582436865796
0.005706874189364461,-0.018631265735866327
0.003692683299000534,-0.027695124742504008
0.0023498893720912484,-0.033066300450141146
0.0003356984817273213,-0.03138780804150454
0.003356984817273213,-0.02584878309300374
0.0023498893720912484,-0.020981155107957578
0.0003356984817273213,-0.020309758144502935
0.0016784924086366065,-0.021652552071412222
0.0016784924086366065,-0.025680933852140077
0.0003356984817273213,-0.027695124742504008
0.003692683299000534,-0.029709315632867935
0.0050354772259098195,-0.032730601968413826
0.007721065079728388,-0.035248340581368734
0.011749446860456245,-0.03944457160296025
0.0157778286411841,-0.044815747310597384
0.01376363775082017,-0.0528725108720531
0.010070954451819639,-0.059250782024872196
0.005706874189364461,-0.06361486228732739
0.007049668116273747,-0.06596475165941862
0.0050354772259098195,-0.06462195773250935
0.006042572671091783,-0.05958648050659952
0.0050354772259098195,-0.053208209353780414
0.003692683299000534,-0.050186923018234526
0.0013427939269092851,-0.051361867704280154
0.006042572671091783,-0.05387960631723506
-0.0003356984817273213,-0.05253681239032577
-0.0006713969634546426,-0.04599069199664301
-0.0010070954451819635,-0.03978027008468757
-0.003692683299000534,-0.040451667048142216
-0.0030212863355458916,-0.044480048828870064
-0.0016784924086366065,-0.04582284275577936
0.0016784924086366065,-0.04313725490196078
0.0023498893720912484,-0.040451667048142216
0.004699778744182497,-0.043808651865415424
0.004699778744182497,-0.044480048828870064
0.005706874189364461,-0.03776607919432364
0.006378271152819104,-0.025009536888685433
0.0023498893720912484,-0.014938582436865796
0.0003356984817273213,-0.010238803692683297
0.0010070954451819635,-0.011581597619592583
0.0016784924086366065,-0.017959868772411687
0.0023498893720912484,-0.021652552071412222
0.0023498893720912484,-0.021652552071412222
0.0050354772259098195,-0.01812771801327535
0.003692683299000534,-0.014267185473411156
0.0050354772259098195,-0.014938582436865796
0.003692683299000534,-0.017792019531548024
-0.0003356984817273213,-0.025345235370412753
-0.0016784924086366065,-0.03138780804150454
-0.0003356984817273213,-0.035751888303959714
0.0006713969634546426,-0.03860532539864195
0.002014190890363927,-0.04213015945677882
0.0003356984817273213,-0.04515144579232471
0.0030212863355458916,-0.04615854123750667
0.0050354772259098195,-0.049515526054779886
0.007385366598001068,-0.05387960631723506
0.007721065079728388,-0.059250782024872196
0.004364080262455177,-0.061936369878690785
0.009063859006637675,-0.05589379720759898
0.006378271152819104,-0.04750133516441596
0.0010070954451819635,-0.044480048828870064
0.0003356984817273213,-0.044480048828870064
0.005706874189364461,-0.042465857938506144
0.004364080262455177,-0.03776607919432364
0.002014190890363927,-0.03474479285877775
0.0010070954451819635,-0.03810177767605096
-0.0003356984817273213,-0.04011596856641489
-0.0010070954451819635,-0.03860532539864195
-0.0016784924086366065,-0.037094682230869
-0.0016784924086366065,-0.03675898374914168
-0.0030212863355458916,-0.036423285267414354
-0.007049668116273747,-0.03474479285877775
-0.004364080262455177,-0.0323949034866865
0.0010070954451819635,-0.027695124742504008
0.004364080262455177,-0.022995345998321506
0.006378271152819104,-0.016617074845502403
0.003692683299000534,-0.010910200656137941
0.0050354772259098195,-0.008224612802319372
0.010070954451819639,-0.009567406729228655
0.009735255970092317,-0.014267185473411156
0.010406652933546959,-0.019638361181048294
0.011749446860456245,-0.021988250553139542
0.010406652933546959,-0.021149004348821242
0.007385366598001068,-0.01695277332722972
0.005706874189364461,-0.01326009002822919
0.0023498893720912484,-0.013931486991683832
0.0030212863355458916,-0.021988250553139542
0.0023498893720912484,-0.030716411078049892
0.0016784924086366065,-0.035416189822232394
0.003692683299000534,-0.03457694361791409
0.0010070954451819635,-0.028702220187685965
-0.0003356984817273213,-0.027695124742504008
0.0010070954451819635,-0.03440909437705043
-0.0003356984817273213,-0.04313725490196078
-0.0023498893720912484,-0.0481727321278706
-0.0016784924086366065,-0.052201113908598454
0.0050354772259098195,-0.05824368657969024
0.008728160524910353,-0.06730754558632791
0.006378271152819104,-0.0694895857175555
0.007049668116273747,-0.06630045014114595
0.004699778744182497,-0.05572594796673533
0.0023498893720912484,-0.04515144579232471
0.004364080262455177,-0.041123064011596856
0.006378271152819104,-0.040451667048142216
0.0023498893720912484,-0.044480048828870064
-0.0023498893720912484,-0.04649423971923399
-0.0003356984817273213,-0.044480048828870064
-0.0003356984817273213,-0.04129091325246051
-0.0010070954451819635,-0.04129091325246051
-0.0010070954451819635,-0.043976501106279084
-0.0016784924086366065,-0.04582284275577936
0.0016784924086366065,-0.04649423971923399
0.0010070954451819635,-0.041794460975051496
-0.0030212863355458916,-0.033401998931868467
-0.002014190890363927,-0.024505989166094453
0.002014190890363927,-0.017624170290684367
0.006378271152819104,-0.012252994583047227
0.008392462043183033,-0.008560311284046692
0.007721065079728388,-0.009903105210955977
0.011749446860456245,-0.01594567788204776
0.011749446860456245,-0.021652552071412222
0.009063859006637675,-0.020981155107957578
0.006378271152819104,-0.01560997940032044
0.007049668116273747,-0.012252994583047227
0.007721065079728388,-0.01326009002822919
0.008392462043183033,-0.01913481345845731
0.011413748378728923,-0.02400244144350347
0.008392462043183033,-0.02366674296177615
0.0023498893720912484,-0.024338139925230793
-0.0030212863355458916,-0.030045014114595252
-0.0016784924086366065,-0.036423285267414354
-0.0023498893720912484,-0.04078736552986953
-0.004699778744182497,-0.041794460975051496
-0.002014190890363927,-0.043305104142824444
-0.005706874189364461,-0.04917982757305257
-0.0016784924086366065,-0.057572289616235596
0.0050354772259098195,-0.06663614862287326
0.003692683299000534,-0.06865033951323721
0.0050354772259098195,-0.06529335469596398
0.003692683299000534,-0.059250782024872196
0.007721065079728388,-0.05085831998168917
0.010070954451819639,-0.043976501106279084
0.004364080262455177,-0.04078736552986953
0.004364080262455177,-0.04313725490196078
0.0050354772259098195,-0.043472953383688104
0.0016784924086366065,-0.040451667048142216
0.004364080262455177,-0.036423285267414354
0.007721065079728388,-0.03910887312123293
0.004364080262455177,-0.04649423971923399
0.0023498893720912484,-0.04917982757305257
0.003692683299000534,-0.04649423971923399
-0.0003356984817273213,-0.041794460975051496
-0.0003356984817273213,-0.03860532539864195
-0.0003356984817273213,-0.03407339589532311
-0.0023498893720912484,-0.02366674296177615
-0.0003356984817273213,-0.01292439154650187
-0.0010070954451819635,-0.009567406729228655
0.0050354772259098195,-0.011581597619592583
0.0050354772259098195,-0.01527428091859312
0.0023498893720912484,-0.017959868772411687
0.0010070954451819635,-0.022323949034866862
0.0023498893720912484,-0.027695124742504008
0.0010070954451819635,-0.029037918669413288
0.003692683299000534,-0.027359426260776684
0.007721065079728388,-0.024338139925230793
0.007721065079728388,-0.020309758144502935
0.009735255970092317,-0.01628137636377508
0.007721065079728388,-0.01326009002822919
0.007049668116273747,-0.01695277332722972
0.004364080262455177,-0.02584878309300374
0.0003356984817273213,-0.03776607919432364
-0.004028381780727854,-0.043808651865415424
-0.0030212863355458916,-0.04213015945677882
0.0016784924086366065,-0.03978027008468757
0.0050354772259098195,-0.04515144579232471
0.005706874189364461,-0.05790798809796292
0.003692683299000534,-0.0639505607690547
0.004699778744182497,-0.061936369878690785
0.0013427939269092851,-0.05522240024414436
-0.0010070954451819635,-0.04682993820096131
0.0010070954451819635,-0.041794460975051496
0.007721065079728388,-0.040451667048142216
0.007385366598001068,-0.042465857938506144
0.0006713969634546426,-0.044480048828870064
0.0023498893720912484,-0.04582284275577936
0.005706874189364461,-0.043808651865415424
0.007721065079728388,-0.040451667048142216
0.010406652933546959,-0.04145876249332417
0.007385366598001068,-0.04649423971923399
0.0050354772259098195,-0.04917982757305257
0.0030212863355458916,-0.04515144579232471
0.0016784924086366065,-0.03910887312123293
-0.0003356984817273213,-0.03508049134050507
-0.0050354772259098195,-0.033066300450141146
-0.0016784924086366065,-0.027023727779049357
0.0010070954451819635,-0.020645456626230255
-0.0016784924086366065,-0.014938582436865796
-0.004364080262455177,-0.01292439154650187
-0.0003356984817273213,-0.01628137636377508
0.0006713969634546426,-0.019974059662775615
-0.0030212863355458916,-0.024338139925230793
-0.0003356984817273213,-0.02719157701991302
-0.0003356984817273213,-0.025680933852140077
0.003692683299000534,-0.020309758144502935
0.0050354772259098195,-0.01560997940032044
0.005706874189364461,-0.014938582436865796
0.007721065079728388,-0.018631265735866327
0.007721065079728388,-0.027023727779049357
0.006378271152819104,-0.03474479285877775
0.0023498893720912484,-0.041123064011596856
0.005706874189364461,-0.04515144579232471
0.006378271152819104,-0.04783703364614328
0.003692683299000534,-0.050186923018234526
0.003692683299000534,-0.051529716945143814
-0.0003356984817273213,-0.056900892652780956
0.0010070954451819635,-0.061936369878690785
0.004364080262455177,-0.06361486228732739
-0.0023498893720912484,-0.060593575951781484
-0.004699778744182497,-0.05488670176241703
-0.0016784924086366065,-0.049851224536507206
0.0016784924086366065,-0.049851224536507206
0.0050354772259098195,-0.050522621499961846
0.0023498893720912484,-0.04917982757305257
0.0023498893720912484,-0.04649423971923399
0.0023498893720912484,-0.04414435034714275
0.006042572671091783,-0.04632639047837033
0.006378271152819104,-0.049347676813916226
0.007385366598001068,-0.050690470740825506
0.009063859006637675,-0.04682993820096131
0.007721065079728388,-0.041794460975051496
0.007049668116273747,-0.040451667048142216
0.006042572671091783,-0.036423285267414354
0.0050354772259098195,-0.030045014114595252
0.0023498893720912484,-0.024338139925230793
0.0030212863355458916,-0.021652552071412222
0.0010070954451819635,-0.017624170290684367
0.0016784924086366065,-0.011917296101319903
0.0050354772259098195,-0.009903105210955977
0.007721065079728388,-0.014602883955138474
0.009063859006637675,-0.02265964751659419
0.006378271152819104,-0.024673838406958113
0.004699778744182497,-0.022491798275730522
0.0010070954451819635,-0.01896696421759365
0.0010070954451819635,-0.014938582436865796
0.0030212863355458916,-0.010910200656137941
0.0010070954451819635,-0.012252994583047227
-0.0006713969634546426,-0.020645456626230255
-0.0016784924086366065,-0.030380712596322572
0.0010070954451819635,-0.036423285267414354
0.0023498893720912484,-0.03944457160296025
0.0030212863355458916,-0.041123064011596856
0.0050354772259098195,-0.04515144579232471
0.006042572671091783,-0.050522621499961846
0.009063859006637675,-0.05622949568932631
0.006042572671091783,-0.05857938506141757
0.0003356984817273213,-0.05824368657969024
-0.003356984817273213,-0.05824368657969024
-0.003692683299000534,-0.05874723430228122
-0.0010070954451819635,-0.056900892652780956
-0.0030212863355458916,-0.053208209353780414
-0.0050354772259098195,-0.04917982757305257
0.0003356984817273213,-0.043808651865415424
0.0023498893720912484,-0.03776607919432364
0.0023498893720912484,-0.03373769741359579
0.004364080262455177,-0.033066300450141146
0.010070954451819639,-0.036423285267414354
0.009063859006637675,-0.043472953383688104
0.003692683299000534,-0.0481727321278706
0.003692683299000534,-0.043976501106279084
0.009735255970092317,-0.03440909437705043
0.009063859006637675,-0.02719157701991302
0.007049668116273747,-0.027695124742504008
0.006042572671091783,-0.027023727779049357
0.0050354772259098195,-0.022323949034866862
0.006378271152819104,-0.01527428091859312
0.002014190890363927,-0.011245899137865261
0.0023498893720912484,-0.012252994583047227
0.0010070954451819635,-0.01560997940032044
-0.0050354772259098195,-0.019806210421911954
-0.0030212863355458916,-0.023834592202639806
0.0023498893720912484,-0.025345235370412753
0.0023498893720912484,-0.02366674296177615
0.0016784924086366065,-0.017959868772411687
0.003356984817273213,-0.01326009002822919
0.0050354772259098195,-0.01292439154650187
0.0050354772259098195,-0.01829556725413901
0.002014190890363927,-0.025009536888685433
0.0023498893720912484,-0.028702220187685965
0.007721065079728388,-0.0323949034866865
0.007721065079728388,-0.03910887312123293
0.0050354772259098195,-0.04649423971923399
0.006378271152819104,-0.05387960631723506
0.010406652933546959,-0.05589379720759898
0.012085145342183566,-0.05589379720759898
0.007721065079728388,-0.05589379720759898
0.004699778744182497,-0.05589379720759898
0.004699778744182497,-0.058915083543144876
0.0023498893720912484,-0.060593575951781484
0.0023498893720912484,-0.05857938506141757
-0.0010070954451819635,-0.050522621499961846
-0.0010070954451819635,-0.04313725490196078
-0.005706874189364461,-0.040451667048142216
-0.004364080262455177,-0.04011596856641489
-0.0030212863355458916,-0.041794460975051496
-0.0016784924086366065,-0.042465857938506144
-0.0003356984817273213,-0.042465857938506144
0.0016784924086366065,-0.04145876249332417
0.007049668116273747,-0.040451667048142216
0.011078049897001601,-0.040451667048142216
0.009735255970092317,-0.03843747615777828
0.007385366598001068,-0.036423285267414354
0.0023498893720912484,-0.033401998931868467
0.0050354772259098195,-0.026352330815594724
0.0050354772259098195,-0.016617074845502403
0.0003356984817273213,-0.008224612802319372
-0.0006713969634546426,-0.005706874189364461
0.0003356984817273213,-0.010910200656137941
0.0030212863355458916,-0.01829556725413901
0.0010070954451819635,-0.021149004348821242
0.0023498893720912484,-0.0213168535896849
0.007049668116273747,-0.022323949034866862
0.004364080262455177,-0.024338139925230793
0.0016784924086366065,-0.02366674296177615
-0.0003356984817273213,-0.022323949034866862
-0.0013427939269092851,-0.01846341649500267
-0.0003356984817273213,-0.01829556725413901
0.0030212863355458916,-0.021652552071412222
0.006378271152819104,-0.025009536888685433
0.0050354772259098195,-0.03373769741359579
0.0050354772259098195,-0.04313725490196078
0.005706874189364461,-0.051865415426871134
0.004364080262455177,-0.05589379720759898
0.003692683299000534,-0.057236591134508276
0.003692683299000534,-0.060090028229190504
0.007049668116273747,-0.062272068360418105
0.004364080262455177,-0.06462195773250935
0.0050354772259098195,-0.06294346532387274
0.007049668116273747,-0.05958648050659952
0.0050354772259098195,-0.054551003280689715
0.0050354772259098195,-0.048508430609597926
0.004364080262455177,-0.04313725490196078
0.003692683299000534,-0.04078736552986953
-0.0003356984817273213,-0.043808651865415424
-0.0030212863355458916,-0.04750133516441596
-0.004364080262455177,-0.049851224536507206
-0.007049668116273747,-0.04783703364614328
-0.006042572671091783,-0.041123064011596856
-0.0030212863355458916,-0.03390554665445944
-0.0003356984817273213,-0.03172350652323186
0.006378271152819104,-0.03105210955977722
0.0050354772259098195,-0.027359426260776684
0.005706874189364461,-0.021988250553139542
0.0050354772259098195,-0.01628137636377508
0.003692683299000534,-0.01594567788204776
0.0050354772259098195,-0.017624170290684367
0.006378271152819104,-0.019974059662775615
0.007049668116273747,-0.017624170290684367
0.0050354772259098195,-0.01695277332722972
0.003692683299000534,-0.017959868772411687
0.004364080262455177,-0.017288471808957043
0.003356984817273213,-0.01896696421759365
0.003692683299000534,-0.022323949034866862
0.0023498893720912484,-0.021988250553139542
0.0006713969634546426,-0.01812771801327535
0.0023498893720912484,-0.014267185473411156
0.0023498893720912484,-0.014267185473411156
0.0003356984817273213,-0.020981155107957578
0.0016784924086366065,-0.033401998931868467
0.0016784924086366065,-0.04213015945677882
0.003692683299000534,-0.04649423971923399
0.0050354772259098195,-0.04649423971923399
0.009735255970092317,-0.04917982757305257
0.009063859006637675,-0.05656519417105363
0.006378271152819104,-0.05958648050659952
0.003692683299000534,-0.060593575951781484
0.0050354772259098195,-0.06092927443350881
0.004364080262455177,-0.060090028229190504
0.0003356984817273213,-0.05656519417105363
-0.0003356984817273213,-0.049851224536507206
-0.0013427939269092851,-0.043472953383688104
-0.0016784924086366065,-0.040451667048142216
-0.0003356984817273213,-0.03978027008468757
-0.0016784924086366065,-0.04078736552986953
0.0016784924086366065,-0.04145876249332417
-0.0003356984817273213,-0.042801556420233464
0.0016784924086366065,-0.049515526054779886
0.006713969634546426,-0.053208209353780414
0.004364080262455177,-0.04917982757305257
0.0023498893720912484,-0.03910887312123293
0.0050354772259098195,-0.027862973983367664
0.006378271152819104,-0.021652552071412222
0.007049668116273747,-0.019638361181048294
0.0050354772259098195,-0.019638361181048294
0.007721065079728388,-0.01896696421759365
0.008392462043183033,-0.020981155107957578
0.004699778744182497,-0.021652552071412222
0.0023498893720912484,-0.01829556725413901
0.006378271152819104,-0.01527428091859312
0.009063859006637675,-0.01695277332722972
0.006042572671091783,-0.025009536888685433
0.0016784924086366065,-0.028366521705958644
0.004699778744182497,-0.026352330815594724
0.0010070954451819635,-0.024673838406958113
-0.0010070954451819635,-0.025009536888685433
0.0016784924086366065,-0.025345235370412753
-0.0010070954451819635,-0.02400244144350347
-0.004364080262455177,-0.02853437094682231
-0.0050354772259098195,-0.040451667048142216
-0.0030212863355458916,-0.05119401846341649
-0.0010070954451819635,-0.054551003280689715
-0.0003356984817273213,-0.05119401846341649
0.003692683299000534,-0.05085831998168917
0.005706874189364461,-0.05522240024414436
0.007049668116273747,-0.06126497291523613
0.007049668116273747,-0.06126497291523613
0.004364080262455177,-0.057236591134508276
0.006042572671091783,-0.054551003280689715
0.004028381780727854,-0.054551003280689715
0.003692683299000534,-0.05119401846341649
0.006042572671091783,-0.04548714427405204
0.0023498893720912484,-0.0387731746395056
0.0023498893720912484,-0.03440909437705043
0.0003356984817273213,-0.03508049134050507
-0.0030212863355458916,-0.03843747615777828
-0.0006713969634546426,-0.044815747310597384
-0.0016784924086366065,-0.049347676813916226
-0.0006713969634546426,-0.04917982757305257
0.0023498893720912484,-0.041794460975051496
0.0023498893720912484,-0.030380712596322572
-0.003692683299000534,-0.022323949034866862
-0.0013427939269092851,-0.020309758144502935
0.003692683299000534,-0.021652552071412222
0.007721065079728388,-0.020309758144502935
0.008392462043183033,-0.017288471808957043
0.007721065079728388,-0.015106431677729458
0.009063859006637675,-0.01560997940032044
0.011749446860456245,-0.01896696421759365
0.009063859006637675,-0.021652552071412222
0.0050354772259098195,-0.022995345998321506
0.007049668116273747,-0.020981155107957578
0.007049668116273747,-0.020309758144502935
0.0050354772259098195,-0.022995345998321506
0.0016784924086366065,-0.020981155107957578
-0.0030212863355458916,-0.01560997940032044
-0.0030212863355458916,-0.014938582436865796
-0.0010070954451819635,-0.019638361181048294
-0.0016784924086366065,-0.02584878309300374
-0.005706874189364461,-0.03205920500495917
-0.006378271152819104,-0.03776607919432364
-0.006378271152819104,-0.04649423971923399
-0.0016784924086366065,-0.0528725108720531
0.0010070954451819635,-0.05438315403982604
0.006042572671091783,-0.05354390783550774
0.009735255970092317,-0.05421530479896238
0.005706874189364461,-0.054047455558098714
0.0016784924086366065,-0.050522621499961846
0.0023498893720912484,-0.048508430609597926
0.0023498893720912484,-0.04800488288700694
0.0050354772259098195,-0.04783703364614328
0.005706874189364461,-0.044480048828870064
0.006378271152819104,-0.03927672236209659
0.010406652933546959,-0.037094682230869
0.007049668116273747,-0.037094682230869
0.008392462043183033,-0.041794460975051496
0.007721065079728388,-0.04716563668268864
0.007049668116273747,-0.048844129091325246
0.004364080262455177,-0.04515144579232471
-0.0010070954451819635,-0.041794460975051496
-0.0003356984817273213,-0.0387731746395056
-0.0003356984817273213,-0.03407339589532311
0.0003356984817273213,-0.027695124742504008
0.004364080262455177,-0.022995345998321506
0.0023498893720912484,-0.020981155107957578
0.0010070954451819635,-0.017624170290684367
0.0050354772259098195,-0.01359578850995651
0.006378271152819104,-0.01376363775082017
0.004364080262455177,-0.017959868772411687
0.0016784924086366065,-0.01896696421759365
0.0050354772259098195,-0.01695277332722972
0.007049668116273747,-0.017624170290684367
0.009063859006637675,-0.01896696421759365
0.007721065079728388,-0.022995345998321506
0.0050354772259098195,-0.026352330815594724
0.0030212863355458916,-0.02937361715114061
-0.0003356984817273213,-0.02937361715114061
0.003692683299000534,-0.02853437094682231
-0.0003356984817273213,-0.03138780804150454
-0.0030212863355458916,-0.03910887312123293
-0.0016784924086366065,-0.048508430609597926
-0.0003356984817273213,-0.054551003280689715
-0.0003356984817273213,-0.05790798809796292
-0.0010070954451819635,-0.05958648050659952
0.0016784924086366065,-0.059250782024872196
0.004699778744182497,-0.05740444037537193
0.004699778744182497,-0.05656519417105363
0.007721065079728388,-0.05790798809796292
0.011749446860456245,-0.05522240024414436
0.007049668116273747,-0.05119401846341649
0.0023498893720912484,-0.04682993820096131
0.004364080262455177,-0.040451667048142216
0.0050354772259098195,-0.035416189822232394
0.007721065079728388,-0.03474479285877775
0.0023498893720912484,-0.04129091325246051
0.0050354772259098195,-0.048508430609597926
0.007721065079728388,-0.0528725108720531
0.004364080262455177,-0.05119401846341649
0.0016784924086366065,-0.041962310215915156
0.0023498893720912484,-0.03105210955977722
0.002014190890363927,-0.02333104448004883
-0.0003356984817273213,-0.020477607385366595
0.0010070954451819635,-0.019302662699320974
0.0010070954451819635,-0.017792019531548024
-0.0003356984817273213,-0.016617074845502403
0.0023498893720912484,-0.019302662699320974
0.0030212863355458916,-0.023163195239185166
0.007721065079728388,-0.024338139925230793
0.004364080262455177,-0.020309758144502935
-0.0030212863355458916,-0.014602883955138474
-0.0030212863355458916,-0.011413748378728923
-0.0010070954451819635,-0.012420843823910887
-0.0003356984817273213,-0.019638361181048294
0.0023498893720912484,-0.02333104448004883
0.0050354772259098195,-0.02400244144350347
0.004699778744182497,-0.02333104448004883
0.007721065079728388,-0.024338139925230793
0.006378271152819104,-0.028366521705958644
0.003356984817273213,-0.03608758678568704
0.006378271152819104,-0.04582284275577936
0.007049668116273747,-0.049515526054779886
0.004364080262455177,-0.052201113908598454
0.003692683299000534,-0.05589379720759898
0.004699778744182497,-0.05824368657969024
0.003692683299000534,-0.05958648050659952
0.0050354772259098195,-0.056900892652780956
0.0003356984817273213,-0.05421530479896238
-0.0010070954451819635,-0.053208209353780414
-0.0003356984817273213,-0.05253681239032577
0.0010070954451819635,-0.04750133516441596
0.0030212863355458916,-0.04011596856641489
0.0023498893720912484,-0.03776607919432364
0.0010070954451819635,-0.041123064011596856
0.0016784924086366065,-0.04515144579232471
-0.0003356984817273213,-0.048508430609597926
0.0023498893720912484,-0.04917982757305257
0.006378271152819104,-0.04917982757305257
0.006042572671091783,-0.04917982757305257
0.004364080262455177,-0.043976501106279084
0.0010070954451819635,-0.0323949034866865
-0.003692683299000534,-0.020981155107957578
-0.003692683299000534,-0.016617074845502403
-0.0003356984817273213,-0.017288471808957043
0.0016784924086366065,-0.016617074845502403
-0.0003356984817273213,-0.017959868772411687
-0.0003356984817273213,-0.020981155107957578
-0.0030212863355458916,-0.024673838406958113
0.0023498893720912484,-0.026352330815594724
0.0003356984817273213,-0.02584878309300374
0.003692683299000534,-0.025177386129549097
0.0003356984817273213,-0.02366674296177615
-0.0023498893720912484,-0.024505989166094453
0.0016784924086366065,-0.027023727779049357
0.003692683299000534,-0.027359426260776684
0.006378271152819104,-0.02366674296177615
0.011078049897001601,-0.020645456626230255
0.012420843823910887,-0.024505989166094453
0.009735255970092317,-0.03105210955977722
0.009735255970092317,-0.03776607919432364
0.0050354772259098195,-0.043808651865415424
0.0003356984817273213,-0.05085831998168917
-0.003692683299000534,-0.057236591134508276
-0.0010070954451819635,-0.059250782024872196
-0.0010070954451819635,-0.05790798809796292
-0.0016784924086366065,-0.05387960631723506
0.0010070954451819635,-0.05085831998168917
0.0016784924086366065,-0.049347676813916226
0.0023498893720912484,-0.04649423971923399
0.0030212863355458916,-0.043808651865415424
0.0003356984817273213,-0.043808651865415424
0.003692683299000534,-0.04011596856641489
0.006378271152819104,-0.03608758678568704
0.0050354772259098195,-0.033401998931868467
0.004699778744182497,-0.036423285267414354
0.0050354772259098195,-0.04313725490196078
0.002014190890363927,-0.04716563668268864
0.007049668116273747,-0.049347676813916226
0.007721065079728388,-0.04716563668268864
0.006378271152819104,-0.041794460975051496
0.007049668116273747,-0.03373769741359579
0.011749446860456245,-0.022995345998321506
0.011749446860456245,-0.017120622568093383
0.009735255970092317,-0.01695277332722972
0.004364080262455177,-0.020309758144502935
0.0010070954451819635,-0.021988250553139542
-0.0016784924086366065,-0.02333104448004883
-0.004364080262455177,-0.025009536888685433
-0.0030212863355458916,-0.022995345998321506
-0.003692683299000534,-0.019974059662775615
0.0023498893720912484,-0.01829556725413901
0.004364080262455177,-0.019974059662775615
0.004699778744182497,-0.02366674296177615
0.005706874189364461,-0.027695124742504008
0.006378271152819104,-0.028030823224231328
0.004699778744182497,-0.024338139925230793
0.0023498893720912484,-0.02366674296177615
0.004364080262455177,-0.030045014114595252
0.0050354772259098195,-0.03843747615777828
0.004364080262455177,-0.044480048828870064
0.006042572671091783,-0.04666208896009766
0.0010070954451819635,-0.051865415426871134
-0.0010070954451819635,-0.06327916380560006
0.006378271152819104,-0.06932173647669183
0.004364080262455177,-0.06831464103150987
-0.0003356984817273213,-0.06092927443350881
-0.0003356984817273213,-0.054551003280689715
0.0023498893720912484,-0.051529716945143814
0.0016784924086366065,-0.04783703364614328
0.0023498893720912484,-0.04313725490196078
0.0003356984817273213,-0.03978027008468757
-0.0003356984817273213,-0.0379339284351873
0.0010070954451819635,-0.03508049134050507
0.0050354772259098195,-0.030045014114595252
0.008392462043183033,-0.029037918669413288
0.010406652933546959,-0.03508049134050507
0.010406652933546959,-0.04515144579232471
0.0050354772259098195,-0.049851224536507206
0.004028381780727854,-0.04548714427405204
0.0023498893720912484,-0.03776607919432364
0.003692683299000534,-0.02937361715114061
0.003692683299000534,-0.021652552071412222
0.003692683299000534,-0.014267185473411156
0.004364080262455177,-0.01292439154650187
0.007721065079728388,-0.01695277332722972
0.0023498893720912484,-0.023163195239185166
-0.0023498893720912484,-0.024505989166094453
-0.004364080262455177,-0.019638361181048294
-0.0023498893720912484,-0.011917296101319903
0.0016784924086366065,-0.006881818875410085
0.0023498893720912484,-0.006210421911955443
-0.005706874189364461,-0.008896009765774012
-0.006378271152819104,-0.012588693064774548
0.0010070954451819635,-0.017959868772411687
0.008392462043183033,-0.025680933852140077
0.008728160524910353,-0.03172350652323186
0.0023498893720912484,-0.03407339589532311
0.0050354772259098195,-0.03474479285877775
0.010406652933546959,-0.037094682230869
0.006378271152819104,-0.041794460975051496
0.0010070954451819635,-0.0481727321278706
-0.0003356984817273213,-0.05656519417105363
0.0010070954451819635,-0.0639505607690547
0.003692683299000534,-0.06630045014114595
0.003692683299000534,-0.06327916380560006
0.0030212863355458916,-0.059250782024872196
0.003692683299000534,-0.055390249485008015
-0.0016784924086366065,-0.05119401846341649
-0.0016784924086366065,-0.04716563668268864
-0.0030212863355458916,-0.043808651865415424
-0.0003356984817273213,-0.043808651865415424
0.0023498893720912484,-0.04213015945677882
0.0016784924086366065,-0.03860532539864195
0.0023498893720912484,-0.035751888303959714
0.0023498893720912484,-0.03675898374914168
0.002014190890363927,-0.043472953383688104
0.006378271152819104,-0.050522621499961846
0.007049668116273747,-0.051529716945143814
0.007049668116273747,-0.04515144579232471
0.007049668116273747,-0.03373769741359579
0.009735255970092317,-0.025345235370412753
0.009399557488364994,-0.0213168535896849
0.006378271152819104,-0.019974059662775615
0.004028381780727854,-0.01913481345845731
0.0016784924086366065,-0.01695277332722972
0.0023498893720912484,-0.01628137636377508
0.003692683299000534,-0.022995345998321506
0.003692683299000534,-0.03105210955977722
0.004364080262455177,-0.0323949034866865
0.004364080262455177,-0.025680933852140077
0.003692683299000534,-0.019302662699320974
0.007049668116273747,-0.017624170290684367
0.0023498893720912484,-0.020981155107957578
0.0010070954451819635,-0.026352330815594724
-0.0030212863355458916,-0.027695124742504008
-0.0016784924086366065,-0.028030823224231328
-0.0003356984817273213,-0.030380712596322572
-0.0003356984817273213,-0.03373769741359579
0.0010070954451819635,-0.03659113450827802
0.0016784924086366065,-0.04078736552986953
0.004364080262455177,-0.048676279850461586
0.0003356984817273213,-0.05589379720759898
0.005706874189364461,-0.06126497291523613
0.007385366598001068,-0.06361486228732739
0.007049668116273747,-0.06126497291523613
0.007721065079728388,-0.05656519417105363
0.004364080262455177,-0.051865415426871134
0.003692683299000534,-0.05119401846341649
0.0030212863355458916,-0.05085831998168917
0.0010070954451819635,-0.050186923018234526
-0.0003356984817273213,-0.04599069199664301
0.004364080262455177,-0.03978027008468757
0.003692683299000534,-0.03843747615777828
-0.0010070954451819635,-0.04213015945677882
0.0030212863355458916,-0.04615854123750667
-0.0003356984817273213,-0.04515144579232471
-0.0050354772259098195,-0.04011596856641489
0.0010070954451819635,-0.03407339589532311
0.0010070954451819635,-0.03105210955977722
0.0023498893720912484,-0.02652018005645838
0.0010070954451819635,-0.020309758144502935
0.004364080262455177,-0.012252994583047227
0.006378271152819104,-0.006210421911955443
0.004364080262455177,-0.005874723430228122
0.006378271152819104,-0.008896009765774012
0.007049668116273747,-0.014938582436865796
0.007721065079728388,-0.020309758144502935
0.0050354772259098195,-0.02265964751659419
0.0010070954451819635,-0.019638361181048294
0.006713969634546426,-0.01594567788204776
0.007385366598001068,-0.01527428091859312
0.0050354772259098195,-0.01628137636377508
0.0023498893720912484,-0.019638361181048294
0.0016784924086366065,-0.0213168535896849
0.0023498893720912484,-0.021652552071412222
0.0010070954451819635,-0.022995345998321506
0.0010070954451819635,-0.027359426260776684
-0.0003356984817273213,-0.03256275272755016
0.0006713969634546426,-0.03810177767605096
-0.0003356984817273213,-0.04716563668268864
0.0006713969634546426,-0.05790798809796292
0.0010070954451819635,-0.06596475165941862
0.002014190890363927,-0.06730754558632791
0.007721065079728388,-0.061936369878690785
0.005706874189364461,-0.054551003280689715
0.005706874189364461,-0.049851224536507206
0.007385366598001068,-0.04783703364614328
0.004699778744182497,-0.04682993820096131
0.0050354772259098195,-0.044815747310597384
0.0016784924086366065,-0.043808651865415424
0.0010070954451819635,-0.04649423971923399
0.005706874189364461,-0.049851224536507206
0.002014190890363927,-0.05085831998168917
-0.0003356984817273213,-0.050186923018234526
-0.0010070954451819635,-0.04783703364614328
-0.0016784924086366065,-0.04582284275577936
0.0016784924086366065,-0.044480048828870064
-0.002014190890363927,-0.04313725490196078
-0.002014190890363927,-0.03944457160296025
-0.0016784924086366065,-0.032730601968413826
0.0023498893720912484,-0.02366674296177615
0.0050354772259098195,-0.01594567788204776
0.005706874189364461,-0.01292439154650187
0.0030212863355458916,-0.014938582436865796
0.0023498893720912484,-0.020309758144502935
0.007049668116273747,-0.024841687647821773
0.006378271152819104,-0.027695124742504008
0.0050354772259098195,-0.027695124742504008
0.0023498893720912484,-0.024338139925230793
0.003692683299000534,-0.020477607385366595
0.0050354772259098195,-0.01846341649500267
0.0050354772259098195,-0.02265964751659419
0.003692683299000534,-0.029037918669413288
0.003692683299000534,-0.030380712596322572
-0.0010070954451819635,-0.027359426260776684
0.0016784924086366065,-0.025680933852140077
0.003692683299000534,-0.029037918669413288
0.003356984817273213,-0.036423285267414354
0.002014190890363927,-0.042801556420233464
0.0023498893720912484,-0.044815747310597384
0.004364080262455177,-0.0473334859235523
-0.0006713969634546426,-0.05488670176241703
-0.0003356984817273213,-0.06529335469596398
0.0023498893720912484,-0.06730754558632791
0.0050354772259098195,-0.060593575951781484
0.009063859006637675,-0.053208209353780414
0.009063859006637675,-0.048844129091325246
0.004364080262455177,-0.04599069199664301
0.006378271152819104,-0.04515144579232471
0.007721065079728388,-0.04716563668268864
0.004364080262455177,-0.04615854123750667
0.003692683299000534,-0.04313725490196078
0.004364080262455177,-0.041123064011596856
0.0050354772259098195,-0.040451667048142216
0.0050354772259098195,-0.0387731746395056
0.0050354772259098195,-0.03776607919432364
0.004364080262455177,-0.03743038071259632
0.003692683299000534,-0.035751888303959714
-0.0003356984817273213,-0.03172350652323186
-0.0003356984817273213,-0.02333104448004883
0.0010070954451819635,-0.01359578850995651
0.003356984817273213,-0.008224612802319372
0.003692683299000534,-0.009567406729228655
0.0016784924086366065,-0.01829556725413901
0.003356984817273213,-0.025680933852140077
0.006378271152819104,-0.028030823224231328
0.007049668116273747,-0.025009536888685433
0.003692683299000534,-0.01695277332722972
0.007721065079728388,-0.010910200656137941
0.007721065079728388,-0.011245899137865261
0.008392462043183033,-0.01594567788204776
0.010070954451819639,-0.020645456626230255
0.003692683299000534,-0.02265964751659419
-0.0013427939269092851,-0.025009536888685433
0.0016784924086366065,-0.03205920500495917
-0.0023498893720912484,-0.03944457160296025
-0.004364080262455177,-0.044815747310597384
-0.0050354772259098195,-0.04515144579232471
-0.005706874189364461,-0.04649423971923399
-0.005706874189364461,-0.049347676813916226
-0.0016784924086366065,-0.05522240024414436
0.0023498893720912484,-0.06277561608300908
0.003692683299000534,-0.06898603799496453
0.0050354772259098195,-0.06965743495841917
0.004028381780727854,-0.061936369878690785
-0.0003356984817273213,-0.05119401846341649
0.0050354772259098195,-0.044480048828870064
0.007721065079728388,-0.042465857938506144
0.005706874189364461,-0.044480048828870064
0.003692683299000534,-0.04682993820096131
0.004699778744182497,-0.049347676813916226
0.004699778744182497,-0.05119401846341649
0.006378271152819104,-0.05253681239032577
0.0050354772259098195,-0.0520332646677348
0.0023498893720912484,-0.048508430609597926
-0.0030212863355458916,-0.04582284275577936
-0.0030212863355458916,-0.041794460975051496
-0.004364080262455177,-0.03743038071259632
-0.0010070954451819635,-0.030045014114595252
0.0016784924086366065,-0.019974059662775615
0.004364080262455177,-0.01326009002822919
0.006378271152819104,-0.010238803692683297
0.006378271152819104,-0.012252994583047227
0.011749446860456245,-0.016617074845502403
0.013092240787365528,-0.021652552071412222
0.013092240787365528,-0.026352330815594724
0.013092240787365528,-0.030045014114595252
0.010406652933546959,-0.028366521705958644
0.006378271152819104,-0.024505989166094453
0.0023498893720912484,-0.01829556725413901
0.0023498893720912484,-0.014267185473411156
-0.0006713969634546426,-0.01527428091859312
-0.0016784924086366065,-0.01695277332722972
0.002014190890363927,-0.022323949034866862
0.0023498893720912484,-0.029037918669413288
-0.0003356984817273213,-0.037094682230869
-0.0016784924086366065,-0.041794460975051496
0.0016784924086366065,-0.04145876249332417
0.0003356984817273213,-0.041794460975051496
-0.002014190890363927,-0.04649423971923399
-0.0003356984817273213,-0.05589379720759898
0.0050354772259098195,-0.06126497291523613
0.004364080262455177,-0.06126497291523613
-0.0003356984817273213,-0.05790798809796292
-0.0003356984817273213,-0.0528725108720531
0.0023498893720912484,-0.04750133516441596
0.007049668116273747,-0.043472953383688104
0.006378271152819104,-0.043808651865415424
0.0023498893720912484,-0.04649423971923399
0.005706874189364461,-0.044647898069733724
0.006378271152819104,-0.03843747615777828
0.005706874189364461,-0.03407339589532311
0.006042572671091783,-0.03608758678568704
0.006378271152819104,-0.040451667048142216
0.009063859006637675,-0.043976501106279084
0.007721065079728388,-0.04213015945677882
0.0010070954451819635,-0.036423285267414354
0.0016784924086366065,-0.030716411078049892
0.0006713969634546426,-0.027695124742504008
-0.0030212863355458916,-0.02400244144350347
-0.006378271152819104,-0.019974059662775615
-0.0030212863355458916,-0.015106431677729458
0.0006713969634546426,-0.012252994583047227
-0.0003356984817273213,-0.014099336232547494
-0.0003356984817273213,-0.01896696421759365
0.0010070954451819635,-0.025345235370412753
0.0023498893720912484,-0.029037918669413288
0.004699778744182497,-0.028366521705958644
0.004364080262455177,-0.02400244144350347
0.0050354772259098195,-0.021988250553139542
0.005706874189364461,-0.022995345998321506
0.0050354772259098195,-0.02366674296177615
0.006042572671091783,-0.027862973983367664
0.006378271152819104,-0.0315556572823682
0.0023498893720912484,-0.035751888303959714
0.0023498893720912484,-0.037262531471732654
0.003692683299000534,-0.03776607919432364
0.007049668116273747,-0.041123064011596856
0.0030212863355458916,-0.04716563668268864
0.0003356984817273213,-0.05790798809796292
-0.0016784924086366065,-0.06562905317769131
-0.0030212863355458916,-0.06764324406805522
-0.002014190890363927,-0.06294346532387274
0.0010070954451819635,-0.05253681239032577
0.0010070954451819635,-0.04582284275577936
-0.0010070954451819635,-0.04716563668268864
0.0023498893720912484,-0.048676279850461586
0.004364080262455177,-0.04582284275577936
0.006378271152819104,-0.04011596856641489
0.007721065079728388,-0.03843747615777828
0.0050354772259098195,-0.04011596856641489
0.004364080262455177,-0.041962310215915156
0.0016784924086366065,-0.043808651865415424
0.0006713969634546426,-0.040451667048142216
0.003356984817273213,-0.03373769741359579
0.007721065079728388,-0.029877164873731592
0.007721065079728388,-0.029709315632867935
0.003356984817273213,-0.029709315632867935
0.004364080262455177,-0.02333104448004883
0.007721065079728388,-0.014938582436865796
0.005706874189364461,-0.009063859006637675
0.002014190890363927,-0.007553215838864729
-0.0003356984817273213,-0.011581597619592583
-0.0003356984817273213,-0.016617074845502403
0.0023498893720912484,-0.02333104448004883
0.006378271152819104,-0.027023727779049357
0.006042572671091783,-0.024338139925230793
0.004364080262455177,-0.01695277332722972
0.005706874189364461,-0.01292439154650187
0.007049668116273747,-0.01359578850995651
0.007721065079728388,-0.01628137636377508
0.010406652933546959,-0.020981155107957578
0.007049668116273747,-0.02887006942854963
0.006378271152819104,-0.036423285267414354
0.003692683299000534,-0.04078736552986953
0.006378271152819104,-0.04213015945677882
0.006378271152819104,-0.043472953383688104
0.0023498893720912484,-0.04649423971923399
0.0030212863355458916,-0.0528725108720531
0.003356984817273213,-0.058915083543144876
-0.0010070954451819635,-0.061936369878690785
-0.003692683299000534,-0.060593575951781484
-0.003356984817273213,-0.05958648050659952
-0.0003356984817273213,-0.05790798809796292
-0.0016784924086366065,-0.05387960631723506
-0.0006713969634546426,-0.04783703364614328
0.0016784924086366065,-0.04313725490196078
0.004364080262455177,-0.042801556420233464
-0.0016784924086366065,-0.043305104142824444
-0.0030212863355458916,-0.044480048828870064
0.0006713969634546426,-0.044480048828870064
-0.0016784924086366065,-0.04582284275577936
-0.0010070954451819635,-0.04515144579232471
0.0003356984817273213,-0.04078736552986953
-0.0050354772259098195,-0.03608758678568704
-0.0003356984817273213,-0.03407339589532311
0.0003356984817273213,-0.03608758678568704
-0.0030212863355458916,-0.033066300450141146
0.0023498893720912484,-0.027023727779049357
0.0030212863355458916,-0.020981155107957578
-0.0003356984817273213,-0.018631265735866327
0.0010070954451819635,-0.01896696421759365
0.006378271152819104,-0.019638361181048294
0.009063859006637675,-0.02366674296177615
0.005706874189364461,-0.028366521705958644
0.006042572671091783,-0.027695124742504008
0.008728160524910353,-0.02400244144350347
0.006378271152819104,-0.018631265735866327
0.009063859006637675,-0.016784924086366067
0.015106431677729458,-0.01829556725413901
0.014435034714274816,-0.021988250553139542
0.013092240787365528,-0.027359426260776684
0.007385366598001068,-0.03205920500495917
0.006378271152819104,-0.035751888303959714
0.007049668116273747,-0.041123064011596856
0.0023498893720912484,-0.04582284275577936
0.0050354772259098195,-0.051865415426871134
0.006378271152819104,-0.05522240024414436
0.0050354772259098195,-0.05824368657969024
0.0010070954451819635,-0.05992217898832684
0.0010070954451819635,-0.059250782024872196
-0.0006713969634546426,-0.058915083543144876
-0.003356984817273213,-0.05790798809796292
-0.007049668116273747,-0.05387960631723506
-0.007049668116273747,-0.04649423971923399
-0.0023498893720912484,-0.03978027008468757
-0.003692683299000534,-0.036423285267414354
-0.004699778744182497,-0.035751888303959714
-0.0050354772259098195,-0.03910887312123293
-0.0030212863355458916,-0.044480048828870064
0.0010070954451819635,-0.04917982757305257
-0.0003356984817273213,-0.048676279850461586
0.0006713969634546426,-0.041123064011596856
0.0003356984817273213,-0.03172350652323186
0.0050354772259098195,-0.025009536888685433
0.007721065079728388,-0.024338139925230793
0.006378271152819104,-0.024673838406958113
0.008728160524910353,-0.021149004348821242
0.010406652933546959,-0.014602883955138474
0.007721065079728388,-0.007553215838864729
0.007049668116273747,-0.004196231021591517
0.008056763561455708,-0.006881818875410085
0.007049668116273747,-0.012588693064774548
0.0023498893720912484,-0.017120622568093383
-0.0010070954451819635,-0.019302662699320974
0.0003356984817273213,-0.021988250553139542
0.0030212863355458916,-0.028702220187685965
0.0010070954451819635,-0.03256275272755016
0.003356984817273213,-0.030380712596322572
0.0023498893720912484,-0.024338139925230793
0.002014190890363927,-0.02265964751659419
0.004699778744182497,-0.027862973983367664
0.007721065079728388,-0.03457694361791409
0.006378271152819104,-0.041794460975051496
0.009063859006637675,-0.04783703364614328
0.0050354772259098195,-0.050186923018234526
0.0023498893720912484,-0.050186923018234526
0.003692683299000534,-0.05253681239032577
0.004364080262455177,-0.05857938506141757
0.0050354772259098195,-0.06327916380560006
0.009063859006637675,-0.06529335469596398
0.006378271152819104,-0.06025787747005417
0.0023498893720912484,-0.05387960631723506
0.0050354772259098195,-0.049515526054779886
0.006378271152819104,-0.04649423971923399
0.006378271152819104,-0.04599069199664301
0.003692683299000534,-0.04213015945677882
0.006378271152819104,-0.040451667048142216
0.003692683299000534,-0.041794460975051496
-0.0023498893720912484,-0.044815747310597384
-0.0003356984817273213,-0.048508430609597926
-0.0030212863355458916,-0.0473334859235523
-0.0003356984817273213,-0.041794460975051496
-0.0006713969634546426,-0.03608758678568704
0.0003356984817273213,-0.03172350652323186
0.006378271152819104,-0.02652018005645838
0.006042572671091783,-0.021652552071412222
0.004364080262455177,-0.018631265735866327
0.003692683299000534,-0.020645456626230255
0.0010070954451819635,-0.022323949034866862
-0.003356984817273213,-0.023163195239185166
-0.0050354772259098195,-0.021988250553139542
0.0010070954451819635,-0.021652552071412222
0.004699778744182497,-0.024673838406958113
0.009063859006637675,-0.025009536888685433
0.009063859006637675,-0.02333104448004883
0.0050354772259098195,-0.02265964751659419
-0.0003356984817273213,-0.025009536888685433
-0.0023498893720912484,-0.024338139925230793
-0.007049668116273747,-0.01913481345845731
-0.007385366598001068,-0.01829556725413901
-0.0003356984817273213,-0.026352330815594724
0.0003356984817273213,-0.03860532539864195
0.0016784924086366065,-0.04783703364614328
0.0050354772259098195,-0.0528725108720531
0.005706874189364461,-0.053208209353780414
0.008392462043183033,-0.05119401846341649
0.010070954451819639,-0.05387960631723506
0.007385366598001068,-0.05790798809796292
0.006713969634546426,-0.06126497291523613
0.005706874189364461,-0.06277561608300908
0.0050354772259098195,-0.061936369878690785
0.010070954451819639,-0.05824368657969024
0.007049668116273747,-0.051865415426871134
0.0023498893720912484,-0.042465857938506144
0.003692683299000534,-0.035416189822232394
0.0023498893720912484,-0.0323949034866865
-0.0003356984817273213,-0.0323949034866865
-0.002014190890363927,-0.03440909437705043
0.0003356984817273213,-0.03910887312123293
0.0030212863355458916,-0.04515144579232471
0.003692683299000534,-0.04649423971923399
0.0023498893720912484,-0.0426337071793698
0.003692683299000534,-0.035751888303959714
0.005706874189364461,-0.02752727550164034
0.0023498893720912484,-0.021652552071412222
0.0050354772259098195,-0.01896696421759365
0.007049668116273747,-0.01695277332722972
0.008392462043183033,-0.01376363775082017
0.007721065079728388,-0.014602883955138474
0.006378271152819104,-0.01560997940032044
0.0050354772259098195,-0.01359578850995651
0.0010070954451819635,-0.011581597619592583
0.0050354772259098195,-0.01359578850995651
0.0050354772259098195,-0.01896696421759365
0.004364080262455177,-0.021652552071412222
0.003692683299000534,-0.0213168535896849
-0.0006713969634546426,-0.019638361181048294
0.0010070954451819635,-0.01695277332722972
0.0023498893720912484,-0.017624170290684367
0.0023498893720912484,-0.021652552071412222
0.004364080262455177,-0.029709315632867935
0.0050354772259098195,-0.03910887312123293
0.003692683299000534,-0.04582284275577936
0.0023498893720912484,-0.04666208896009766
0.0023498893720912484,-0.04582284275577936
0.002014190890363927,-0.048844129091325246
0.0023498893720912484,-0.05522240024414436
0.002014190890363927,-0.06092927443350881
0.0023498893720912484,-0.06260776684214542
0.0050354772259098195,-0.06092927443350881
0.003692683299000534,-0.060593575951781484
0.003692683299000534,-0.06327916380560006
0.007049668116273747,-0.06260776684214542
0.004364080262455177,-0.05824368657969024
0.003692683299000534,-0.049851224536507206
-0.0016784924086366065,-0.04213015945677882
-0.003356984817273213,-0.03776607919432364
-0.0003356984817273213,-0.037094682230869
-0.0030212863355458916,-0.041794460975051496
0.0006713969634546426,-0.04582284275577936
0.0030212863355458916,-0.04515144579232471
-0.0003356984817273213,-0.03944457160296025
-0.0003356984817273213,-0.03105210955977722
0.0030212863355458916,-0.022323949034866862
0.0010070954451819635,-0.01560997940032044
0.0016784924086366065,-0.01359578850995651
0.0023498893720912484,-0.010910200656137941
0.004699778744182497,-0.011245899137865261
0.0050354772259098195,-0.014435034714274816
0.0050354772259098195,-0.01560997940032044
0.006378271152819104,-0.014938582436865796
0.005706874189364461,-0.01628137636377508
0.004699778744182497,-0.020981155107957578
0.004364080262455177,-0.02366674296177615
0.003692683299000534,-0.022995345998321506
0.0023498893720912484,-0.019974059662775615
0.006378271152819104,-0.01695277332722972
0.0050354772259098195,-0.01628137636377508
0.0050354772259098195,-0.020309758144502935
0.0050354772259098195,-0.026352330815594724
0.004699778744182497,-0.0315556572823682
0.0016784924086366065,-0.035919737544823374
-0.0016784924086366065,-0.040451667048142216
-0.0030212863355458916,-0.048844129091325246
-0.0016784924086366065,-0.05589379720759898
-0.0016784924086366065,-0.05992217898832684
0.0010070954451819635,-0.05992217898832684
0.002014190890363927,-0.05857938506141757
0.004364080262455177,-0.057236591134508276
0.0030212863355458916,-0.05488670176241703
0.005706874189364461,-0.053208209353780414
0.004364080262455177,-0.051529716945143814
0.0023498893720912484,-0.050522621499961846
0.0023498893720912484,-0.04716563668268864
0.0050354772259098195,-0.041123064011596856
0.003692683299000534,-0.03659113450827802
0.0030212863355458916,-0.03776607919432364
0.004364080262455177,-0.044480048828870064
0.0050354772259098195,-0.04917982757305257
0.006378271152819104,-0.05085831998168917
0.003692683299000534,-0.04783703364614328
0.004364080262455177,-0.040451667048142216
0.0050354772259098195,-0.03205920500495917
0.004364080262455177,-0.025680933852140077
0.0023498893720912484,-0.022995345998321506
0.0016784924086366065,-0.023163195239185166
0.003692683299000534,-0.020477607385366595
0.0050354772259098195,-0.016617074845502403
0.0050354772259098195,-0.014267185473411156
0.003356984817273213,-0.014938582436865796
0.003692683299000534,-0.01695277332722972
0.006378271152819104,-0.01829556725413901
0.007385366598001068,-0.01695277332722972
0.008392462043183033,-0.01359578850995651
0.006378271152819104,-0.016449225604638743
0.003692683299000534,-0.024338139925230793
0.004364080262455177,-0.028702220187685965
0.0023498893720912484,-0.03172350652323186
0.004364080262455177,-0.03390554665445944
0.0050354772259098195,-0.036423285267414354
0.0023498893720912484,-0.040451667048142216
0.0023498893720912484,-0.044480048828870064
-0.0003356984817273213,-0.050522621499961846
0.0010070954451819635,-0.05656519417105363
0.0010070954451819635,-0.06160067139696345
0.0023498893720912484,-0.06495765621423667
0.002014190890363927,-0.062272068360418105
0.0010070954451819635,-0.05656519417105363
0.0016784924086366065,-0.05522240024414436
0.007721065079728388,-0.057236591134508276
0.0050354772259098195,-0.05555809872587166
0.004364080262455177,-0.050019073777370866
0.007049668116273747,-0.043472953383688104
0.0050354772259098195,-0.041123064011596856
0.0050354772259098195,-0.040451667048142216
0.007049668116273747,-0.03860532539864195
0.005706874189364461,-0.04061951628900587
0.003692683299000534,-0.0473334859235523
-0.0003356984817273213,-0.051529716945143814
-0.0010070954451819635,-0.048508430609597926
-0.0016784924086366065,-0.040451667048142216
-0.004699778744182497,-0.03138780804150454
-0.007049668116273747,-0.024338139925230793
-0.0003356984817273213,-0.019302662699320974
-0.0016784924086366065,-0.01628137636377508
-0.0050354772259098195,-0.013931486991683832
-0.0003356984817273213,-0.014938582436865796
-0.0016784924086366065,-0.020645456626230255
-0.002014190890363927,-0.025009536888685433
0.0003356984817273213,-0.027359426260776684
0.0030212863355458916,-0.025680933852140077
0.0023498893720912484,-0.020309758144502935
0.006378271152819104,-0.01628137636377508
0.011078049897001601,-0.016617074845502403
0.007721065079728388,-0.020981155107957578
0.0050354772259098195,-0.025009536888685433
0.007721065079728388,-0.027023727779049357
0.004364080262455177,-0.025680933852140077
0.0050354772259098195,-0.028030823224231328
0.003692683299000534,-0.03440909437705043
0.0016784924086366065,-0.041123064011596856
0.0006713969634546426,-0.04750133516441596
-0.0010070954451819635,-0.05253681239032577
-0.0010070954451819635,-0.05824368657969024
0.0030212863355458916,-0.06126497291523613
0.0016784924086366065,-0.060593575951781484
0.0030212863355458916,-0.059250782024872196
0.006378271152819104,-0.057236591134508276
0.010406652933546959,-0.05656519417105363
0.005706874189364461,-0.05555809872587166
0.004364080262455177,-0.052201113908598454
0.007721065079728388,-0.04682993820096131
0.007049668116273747,-0.03978027008468757
0.009063859006637675,-0.03440909437705043
0.009735255970092317,-0.0323949034866865
0.010406652933546959,-0.0323949034866865
0.009735255970092317,-0.03508049134050507
0.008392462043183033,-0.03927672236209659
0.005706874189364461,-0.04078736552986953
0.006378271152819104,-0.041123064011596856
0.007721065079728388,-0.036423285267414354
0.010406652933546959,-0.02937361715114061
-0.0010070954451819635,-0.020645456626230255
-0.003692683299000534,-0.014267185473411156
-0.0016784924086366065,-0.011581597619592583
-0.008392462043183033,-0.012588693064774548
-0.011078049897001601,-0.01628137636377508
-0.004699778744182497,-0.01896696421759365
0.0006713969634546426,-0.020645456626230255
-0.0003356984817273213,-0.021988250553139542
-0.0003356984817273213,-0.020309758144502935
-0.006378271152819104,-0.01628137636377508
-0.003692683299000534,-0.01359578850995651
0.006378271152819104,-0.01628137636377508
0.008392462043183033,-0.020645456626230255
0.009063859006637675,-0.022995345998321506
0.007049668116273747,-0.022995345998321506
0.008392462043183033,-0.021149004348821242
0.007721065079728388,-0.02366674296177615
0.0030212863355458916,-0.029709315632867935
0.0023498893720912484,-0.03978027008468757
0.0013427939269092851,-0.04800488288700694
0.0016784924086366065,-0.052201113908598454
-0.0003356984817273213,-0.054551003280689715
-0.0003356984817273213,-0.05555809872587166
0.0023498893720912484,-0.05387960631723506
0.0030212863355458916,-0.050522621499961846
0.0050354772259098195,-0.049515526054779886
0.0016784924086366065,-0.048508430609597926
0.0016784924086366065,-0.04783703364614328
0.0010070954451819635,-0.04649423971923399
0.002014190890363927,-0.04750133516441596
0.0030212863355458916,-0.04582284275577936
0.0023498893720912484,-0.0426337071793698
0.004364080262455177,-0.03910887312123293
0.0050354772259098195,-0.0379339284351873
0.004364080262455177,-0.03910887312123293
0.003692683299000534,-0.03944457160296025
0.007385366598001068,-0.04129091325246051
0.004699778744182497,-0.041794460975051496
0.0006713969634546426,-0.041794460975051496
0.0003356984817273213,-0.035416189822232394
0.0050354772259098195,-0.025009536888685433
0.007721065079728388,-0.01594567788204776
0.008728160524910353,-0.014435034714274816
0.008392462043183033,-0.01896696421759365
0.005706874189364461,-0.021652552071412222
0.004364080262455177,-0.022323949034866862
0.0023498893720912484,-0.024338139925230793
0.0010070954451819635,-0.025345235370412753
0.0030212863355458916,-0.024338139925230793
0.0010070954451819635,-0.021652552071412222
0.0023498893720912484,-0.024338139925230793
0.0023498893720912484,-0.027023727779049357
0.003692683299000534,-0.028030823224231328
0.005706874189364461,-0.027023727779049357
0.007721065079728388,-0.02265964751659419
0.007721065079728388,-0.020981155107957578
0.007721065079728388,-0.029037918669413288
0.003692683299000534,-0.03810177767605096
0.0016784924086366065,-0.041794460975051496
0.0023498893720912484,-0.04145876249332417
0.0023498893720912484,-0.04548714427405204
-0.0003356984817273213,-0.059250782024872196
0.003692683299000534,-0.07066453040360113
0.004364080262455177,-0.07167162584878309
0.0030212863355458916,-0.0639505607690547
0.0016784924086366065,-0.05656519417105363
0.0023498893720912484,-0.05253681239032577
0.0023498893720912484,-0.050019073777370866
0.0016784924086366065,-0.048508430609597926
0.0023498893720912484,-0.044480048828870064
-0.0003356984817273213,-0.041794460975051496
-0.0003356984817273213,-0.03843747615777828
0.0023498893720912484,-0.03407339589532311
0.0023498893720912484,-0.033569848172732134
0.0030212863355458916,-0.036423285267414354
0.0023498893720912484,-0.04078736552986953
0.004028381780727854,-0.042801556420233464
0.0050354772259098195,-0.03910887312123293
0.0023498893720912484,-0.030380712596322572
0.0010070954451819635,-0.024338139925230793
0.003692683299000534,-0.021652552071412222
0.004699778744182497,-0.017624170290684367
0.003692683299000534,-0.01829556725413901
0.0023498893720912484,-0.02366674296177615
0.003356984817273213,-0.030716411078049892
-0.0003356984817273213,-0.03121995880064088
0.0010070954451819635,-0.02584878309300374
0.0030212863355458916,-0.022156099794003202
0.003692683299000534,-0.022995345998321506
0.007721065079728388,-0.02333104448004883
0.009063859006637675,-0.020645456626230255
0.006042572671091783,-0.01560997940032044
0.0010070954451819635,-0.01628137636377508
-0.0030212863355458916,-0.024338139925230793
-0.0030212863355458916,-0.03138780804150454
-0.0023498893720912484,-0.03390554665445944
-0.0003356984817273213,-0.03205920500495917
-0.0010070954451819635,-0.032730601968413826
0.0010070954451819635,-0.037094682230869
0.0023498893720912484,-0.043808651865415424
0.0023498893720912484,-0.05253681239032577
0.003692683299000534,-0.05992217898832684
0.007721065079728388,-0.0639505607690547
-0.0003356984817273213,-0.060761425192645144
-0.0030212863355458916,-0.05253681239032577
0.0023498893720912484,-0.04582284275577936
0.006042572671091783,-0.043472953383688104
0.005706874189364461,-0.0481727321278706
0.0023498893720912484,-0.051529716945143814
-0.0003356984817273213,-0.050522621499961846
-0.0010070954451819635,-0.044647898069733724
0.0050354772259098195,-0.041794460975051496
0.003356984817273213,-0.04313725490196078
0.0010070954451819635,-0.04682993820096131
0.0016784924086366065,-0.051865415426871134
0.004699778744182497,-0.05522240024414436
0.007721065079728388,-0.05253681239032577
0.010406652933546959,-0.043808651865415424
0.009063859006637675,-0.030380712596322572
0.008392462043183033,-0.019806210421911954
0.011749446860456245,-0.01292439154650187
0.011749446860456245,-0.009903105210955977
0.011413748378728923,-0.009903105210955977
0.006378271152819104,-0.010574502174410621
-0.0003356984817273213,-0.012252994583047227
-0.0003356984817273213,-0.016449225604638743
-0.0003356984817273213,-0.021652552071412222
0.002014190890363927,-0.024338139925230793
0.002014190890363927,-0.01896696421759365
0.0010070954451819635,-0.012252994583047227
-0.0016784924086366065,-0.01359578850995651
-0.0003356984817273213,-0.019638361181048294
-0.0030212863355458916,-0.026352330815594724
-0.005706874189364461,-0.03138780804150454
-0.0003356984817273213,-0.03407339589532311
0.0016784924086366065,-0.03440909437705043
0.0016784924086366065,-0.036423285267414354
0.0050354772259098195,-0.04213015945677882
0.003692683299000534,-0.04917982757305257
0.0050354772259098195,-0.05589379720759898
0.003692683299000534,-0.058915083543144876
0.006378271152819104,-0.06092927443350881
0.010070954451819639,-0.060593575951781484
0.005706874189364461,-0.05857938506141757
0.007721065079728388,-0.05555809872587166
0.007721065079728388,-0.05253681239032577
0.006378271152819104,-0.05119401846341649
0.0023498893720912484,-0.05119401846341649
-0.0003356984817273213,-0.05119401846341649
-0.0003356984817273213,-0.049851224536507206
-0.0006713969634546426,-0.044647898069733724
0.0016784924086366065,-0.03944457160296025
0.0030212863355458916,-0.03927672236209659
0.0016784924086366065,-0.04414435034714275
0.0016784924086366065,-0.048508430609597926
0.0023498893720912484,-0.04582284275577936
0.0023498893720912484,-0.03978027008468757
0.0023498893720912484,-0.03675898374914168
0.0023498893720912484,-0.033066300450141146
0.007721065079728388,-0.027862973983367664
0.009063859006637675,-0.019806210421911954
0.009063859006637675,-0.011749446860456245
0.007721065079728388,-0.007553215838864729
0.0050354772259098195,-0.009735255970092317
0.006378271152819104,-0.01628137636377508
0.007721065079728388,-0.021988250553139542
0.007721065079728388,-0.025680933852140077
0.006378271152819104,-0.021652552071412222
0.008392462043183033,-0.01594567788204776
0.0030212863355458916,-0.014267185473411156
-0.0003356984817273213,-0.017624170290684367
0.0030212863355458916,-0.021988250553139542
0.0023498893720912484,-0.02366674296177615
0.0016784924086366065,-0.024338139925230793
0.0006713969634546426,-0.0260166323338674
-0.0016784924086366065,-0.032730601968413826
-0.0003356984817273213,-0.041794460975051496
0.0016784924086366065,-0.04750133516441596
0.0010070954451819635,-0.05085831998168917
0.003692683299000534,-0.05522240024414436
0.003692683299000534,-0.060593575951781484
0.0016784924086366065,-0.06160067139696345
0.0050354772259098195,-0.05622949568932631
0.005706874189364461,-0.049851224536507206
0.004364080262455177,-0.048508430609597926
0.0050354772259098195,-0.05119401846341649
0.0050354772259098195,-0.051865415426871134
0.0030212863355458916,-0.0473334859235523
0.0050354772259098195,-0.043976501106279084
0.003692683299000534,-0.04582284275577936
0.0023498893720912484,-0.04682993820096131
-0.0003356984817273213,-0.04548714427405204
-0.005706874189364461,-0.04313725490196078
-0.006042572671091783,-0.043305104142824444
-0.005706874189364461,-0.04313725490196078
-0.0010070954451819635,-0.03910887312123293
-0.0003356984817273213,-0.03675898374914168
0.003692683299000534,-0.03407339589532311
0.006042572671091783,-0.03105210955977722
0.007721065079728388,-0.022995345998321506
0.007721065079728388,-0.012252994583047227
0.004699778744182497,-0.007553215838864729
0.0016784924086366065,-0.010238803692683297
0.0006713969634546426,-0.01829556725413901
0.0050354772259098195,-0.022995345998321506
0.010070954451819639,-0.022995345998321506
0.009735255970092317,-0.019638361181048294
0.0050354772259098195,-0.014938582436865796
0.0050354772259098195,-0.01292439154650187
0.002014190890363927,-0.01326009002822919
0.003692683299000534,-0.01695277332722972
0.004364080262455177,-0.02333104448004883
0.0016784924086366065,-0.028366521705958644
-0.0010070954451819635,-0.030380712596322572
0.0003356984817273213,-0.030380712596322572
-0.0003356984817273213,-0.030716411078049892
-0.0003356984817273213,-0.036423285267414354
0.0010070954451819635,-0.043976501106279084
0.0023498893720912484,-0.04783703364614328
0.004364080262455177,-0.052201113908598454
-0.0003356984817273213,-0.05992217898832684
-0.0023498893720912484,-0.06730754558632791
-0.0010070954451819635,-0.06596475165941862
0.0016784924086366065,-0.05740444037537193
0.0010070954451819635,-0.04649423971923399
0.0023498893720912484,-0.03978027008468757
0.007385366598001068,-0.03743038071259632
0.008392462043183033,-0.03810177767605096
0.0050354772259098195,-0.04145876249332417
0.0023498893720912484,-0.044480048828870064
0.0010070954451819635,-0.04615854123750667
-0.0003356984817273213,-0.044480048828870064
-0.0003356984817273213,-0.04213015945677882
-0.0010070954451819635,-0.042465857938506144
-0.0003356984817273213,-0.0426337071793698
-0.004028381780727854,-0.042801556420233464
-0.0003356984817273213,-0.04078736552986953
-0.0003356984817273213,-0.036423285267414354
0.0003356984817273213,-0.028366521705958644
0.003692683299000534,-0.01829556725413901
0.006378271152819104,-0.011917296101319903
0.004699778744182497,-0.010406652933546959
0.0023498893720912484,-0.013931486991683832
0.0016784924086366065,-0.01896696421759365
0.003692683299000534,-0.022995345998321506
0.0050354772259098195,-0.023834592202639806
0.007721065079728388,-0.019302662699320974
0.006378271152819104,-0.0157778286411841
0.003692683299000534,-0.01527428091859312
0.0050354772259098195,-0.01628137636377508
0.011078049897001601,-0.017624170290684367
0.007721065079728388,-0.01896696421759365
0.0050354772259098195,-0.021988250553139542
0.008728160524910353,-0.029709315632867935
0.0050354772259098195,-0.037262531471732654
0.0050354772259098195,-0.0426337071793698
0.0050354772259098195,-0.044480048828870064
0.004699778744182497,-0.04582284275577936
0.005706874189364461,-0.049851224536507206
0.0050354772259098195,-0.05522240024414436
0.0050354772259098195,-0.06126497291523613
0.0050354772259098195,-0.0639505607690547
0.006378271152819104,-0.06260776684214542
0.009063859006637675,-0.057236591134508276
0.009063859006637675,-0.05085831998168917
0.011413748378728923,-0.04682993820096131
0.009063859006637675,-0.044480048828870064
0.0010070954451819635,-0.04313725490196078
0.0016784924086366065,-0.041794460975051496
0.004364080262455177,-0.03994811932555123
0.004364080262455177,-0.03910887312123293
0.007049668116273747,-0.04145876249332417
0.003692683299000534,-0.043808651865415424
0.0023498893720912484,-0.041794460975051496
0.0023498893720912484,-0.03843747615777828
-0.0016784924086366065,-0.03659113450827802
-0.003692683299000534,-0.035416189822232394
0.0003356984817273213,-0.032730601968413826
0.0006713969634546426,-0.022995345998321506
-0.0016784924086366065,-0.014602883955138474
-0.004028381780727854,-0.012252994583047227
-0.0030212863355458916,-0.01292439154650187
-0.0010070954451819635,-0.014267185473411156
-0.0003356984817273213,-0.01560997940032044
0.004699778744182497,-0.01829556725413901
0.003692683299000534,-0.024841687647821773
0.004364080262455177,-0.027695124742504008
0.006378271152819104,-0.02400244144350347
0.0050354772259098195,-0.019974059662775615
0.006378271152819104,-0.019806210421911954
0.004699778744182497,-0.02333104448004883
0.0010070954451819635,-0.026352330815594724
0.0023498893720912484,-0.030045014114595252
0.0006713969634546426,-0.033066300450141146
-0.0016784924086366065,-0.03675898374914168
0.0010070954451819635,-0.04011596856641489
0.0010070954451819635,-0.043808651865415424
-0.0016784924086366065,-0.048844129091325246
0.0003356984817273213,-0.05522240024414436
0.0030212863355458916,-0.061936369878690785
0.0003356984817273213,-0.06411841000991834
0.0010070954451819635,-0.06260776684214542
0.0003356984817273213,-0.05522240024414436
0.003692683299000534,-0.044815747310597384
0.006378271152819104,-0.03776607919432364
0.009735255970092317,-0.03608758678568704
0.007385366598001068,-0.04011596856641489
0.007049668116273747,-0.04615854123750667
0.007721065079728388,-0.048844129091325246
0.007049668116273747,-0.04649423971923399
0.006378271152819104,-0.042465857938506144
0.008392462043183033,-0.042801556420233464
0.006378271152819104,-0.04582284275577936
0.007721065079728388,-0.048508430609597926
0.006042572671091783,-0.04750133516441596
0.0023498893720912484,-0.04129091325246051
0.006378271152819104,-0.03440909437705043
0.0016784924086366065,-0.029037918669413288
0.006378271152819104,-0.024338139925230793
0.003692683299000534,-0.019638361181048294
-0.0016784924086366065,-0.014435034714274816
0.0023498893720912484,-0.010910200656137941
0.003692683299000534,-0.011413748378728923
-0.0030212863355458916,-0.01527428091859312
-0.0030212863355458916,-0.020309758144502935
-0.0016784924086366065,-0.021652552071412222
0.0023498893720912484,-0.020981155107957578
-0.0003356984817273213,-0.01896696421759365
0.004364080262455177,-0.017624170290684367
0.0050354772259098195,-0.017792019531548024
0.0050354772259098195,-0.019974059662775615
0.004364080262455177,-0.025680933852140077
0.004364080262455177,-0.033401998931868467
0.0003356984817273213,-0.042465857938506144
0.0010070954451819635,-0.048844129091325246
0.0003356984817273213,-0.049347676813916226
-0.0010070954451819635,-0.048844129091325246
0.0003356984817273213,-0.05253681239032577
0.003692683299000534,-0.06126497291523613
0.002014190890363927,-0.06898603799496453
-0.0006713969634546426,-0.0703288319218738
0.002014190890363927,-0.06428625925078202
-0.0016784924086366065,-0.053208209353780414
-0.004364080262455177,-0.044647898069733724
-0.0003356984817273213,-0.04145876249332417
0.0023498893720912484,-0.04078736552986953
0.004364080262455177,-0.03910887312123293
0.0050354772259098195,-0.03743038071259632
0.003692683299000534,-0.03978027008468757
-0.0003356984817273213,-0.04615854123750667
0.004699778744182497,-0.05085831998168917
0.007721065079728388,-0.05085831998168917
0.006378271152819104,-0.043808651865415424
0.0050354772259098195,-0.03508049134050507
0.0050354772259098195,-0.028702220187685965
0.0023498893720912484,-0.022491798275730522
0.003356984817273213,-0.020309758144502935
0.0010070954451819635,-0.020309758144502935
0.0016784924086366065,-0.019302662699320974
0.0023498893720912484,-0.017288471808957043
0.0010070954451819635,-0.014938582436865796
-0.0030212863355458916,-0.014267185473411156
-0.003692683299000534,-0.01695277332722972
0.004699778744182497,-0.024673838406958113
0.008392462043183033,-0.028702220187685965
0.007721065079728388,-0.027359426260776684
0.010070954451819639,-0.021652552071412222
0.009063859006637675,-0.01560997940032044
0.008392462043183033,-0.01628137636377508
0.004364080262455177,-0.020309758144502935
0.003692683299000534,-0.02584878309300374
0.0010070954451819635,-0.030045014114595252
0.0023498893720912484,-0.033401998931868467
0.005706874189364461,-0.03659113450827802
0.006378271152819104,-0.03776607919432364
0.007721065079728388,-0.03944457160296025
0.009735255970092317,-0.044480048828870064
0.010406652933546959,-0.055390249485008015
0.008728160524910353,-0.06462195773250935
0.0050354772259098195,-0.06764324406805522
0.0016784924086366065,-0.06613260090028229
0.0050354772259098195,-0.06327916380560006
0.003692683299000534,-0.059250782024872196
0.0016784924086366065,-0.05656519417105363
0.003692683299000534,-0.050019073777370866
0.0016784924086366065,-0.04414435034714275
-0.0003356984817273213,-0.04129091325246051
-0.003356984817273213,-0.03776607919432364
-0.0003356984817273213,-0.035919737544823374
0.003692683299000534,-0.03978027008468757
0.0030212863355458916,-0.04531929503318838
-0.0010070954451819635,-0.04716563668268864
-0.003692683299000534,-0.042801556420233464
-0.006042572671091783,-0.03743038071259632
-0.0030212863355458916,-0.03508049134050507
0.0003356984817273213,-0.03608758678568704
-0.0003356984817273213,-0.03407339589532311
0.0023498893720912484,-0.027695124742504008
0.003692683299000534,-0.01829556725413901
0.0023498893720912484,-0.01292439154650187
0.0023498893720912484,-0.010910200656137941
0.0006713969634546426,-0.01292439154650187
0.0006713969634546426,-0.01913481345845731
0.0010070954451819635,-0.025009536888685433
0.003692683299000534,-0.026352330815594724
0.003692683299000534,-0.021652552071412222
0.007721065079728388,-0.013931486991683832
0.009735255970092317,-0.008392462043183033
0.006378271152819104,-0.010238803692683297
0.006378271152819104,-0.017288471808957043
0.006378271152819104,-0.024673838406958113
0.006378271152819104,-0.02887006942854963
0.007721065079728388,-0.03172350652323186
0.0050354772259098195,-0.0387731746395056
0.011749446860456245,-0.04582284275577936
0.015106431677729458,-0.05085831998168917
0.009063859006637675,-0.053208209353780414
0.0023498893720912484,-0.05790798809796292
0.0023498893720912484,-0.06160067139696345
0.004364080262455177,-0.05992217898832684
-0.0010070954451819635,-0.057236591134508276
0.0016784924086366065,-0.05522240024414436
0.007721065079728388,-0.0528725108720531
0.007721065079728388,-0.04548714427405204
0.004364080262455177,-0.036423285267414354
0.0030212863355458916,-0.03407339589532311
-0.0006713969634546426,-0.03843747615777828
-0.007049668116273747,-0.04414435034714275
-0.004364080262455177,-0.041794460975051496
-0.0003356984817273213,-0.03944457160296025
0.0016784924086366065,-0.03978027008468757
0.007721065079728388,-0.04011596856641489
0.007721065079728388,-0.03776607919432364
0.006378271152819104,-0.03440909437705043
0.0050354772259098195,-0.033066300450141146
0.006378271152819104,-0.03440909437705043
0.0050354772259098195,-0.03256275272755016
0.0010070954451819635,-0.024673838406958113
0.0023498893720912484,-0.015106431677729458
0.0016784924086366065,-0.010910200656137941
0.003356984817273213,-0.01359578850995651
0.007721065079728388,-0.01896696421759365
0.007721065079728388,-0.020981155107957578
0.005706874189364461,-0.01913481345845731
-0.0003356984817273213,-0.01829556725413901
-0.0010070954451819635,-0.021652552071412222
-0.0030212863355458916,-0.02366674296177615
-0.004364080262455177,-0.02333104448004883
0.0016784924086366065,-0.019638361181048294
0.004364080262455177,-0.017959868772411687
0.0030212863355458916,-0.021149004348821242
0.003692683299000534,-0.028030823224231328
0.0023498893720912484,-0.03843747615777828
0.007049668116273747,-0.04750133516441596
0.007721065079728388,-0.05387960631723506
0.007721065079728388,-0.05387960631723506
0.007721065079728388,-0.051529716945143814
0.008392462043183033,-0.053208209353780414
0.0030212863355458916,-0.05656519417105363
0.0006713969634546426,-0.06025787747005417
0.0003356984817273213,-0.06092927443350881
-0.0003356984817273213,-0.059250782024872196
-0.0003356984817273213,-0.05304036011291676
-0.0003356984817273213,-0.04582284275577936
-0.003692683299000534,-0.04213015945677882
-0.005706874189364461,-0.041123064011596856
-0.005706874189364461,-0.042801556420233464
-0.007385366598001068,-0.04548714427405204
-0.004364080262455177,-0.0481727321278706
0.0006713969634546426,-0.04582284275577936
0.0030212863355458916,-0.0387731746395056
0.003692683299000534,-0.0323949034866865
0.002014190890363927,-0.030380712596322572
0.003692683299000534,-0.028702220187685965
0.0050354772259098195,-0.025680933852140077
-0.0003356984817273213,-0.02366674296177615
-0.0003356984817273213,-0.024338139925230793
0.004364080262455177,-0.0260166323338674
0.003692683299000534,-0.025680933852140077
0.003692683299000534,-0.022995345998321506
0.007049668116273747,-0.020309758144502935
0.007721065079728388,-0.017792019531548024
0.007721065079728388,-0.01628137636377508
0.007385366598001068,-0.01628137636377508
0.007721065079728388,-0.01896696421759365
0.004364080262455177,-0.020309758144502935
0.0023498893720912484,-0.020981155107957578
0.0023498893720912484,-0.020309758144502935
0.003692683299000534,-0.01896696421759365
0.006378271152819104,-0.019974059662775615
0.0050354772259098195,-0.022323949034866862
0.003692683299000534,-0.028366521705958644
0.004364080262455177,-0.035751888303959714
0.006378271152819104,-0.04313725490196078
0.004364080262455177,-0.04750133516441596
-0.0010070954451819635,-0.051529716945143814
-0.0010070954451819635,-0.057572289616235596
0.0023498893720912484,-0.061936369878690785
0.007721065079728388,-0.06596475165941862
0.003692683299000534,-0.06747539482719157
0.005706874189364461,-0.06596475165941862
0.009735255970092317,-0.060593575951781484
0.007385366598001068,-0.05119401846341649
0.003356984817273213,-0.04414435034714275
0.007049668116273747,-0.0379339284351873
0.004364080262455177,-0.036423285267414354
0.0023498893720912484,-0.03910887312123293
0.0050354772259098195,-0.03994811932555123
0.007721065079728388,-0.041794460975051496
0.007049668116273747,-0.04649423971923399
0.004364080262455177,-0.04682993820096131
0.0050354772259098195,-0.04313725490196078
-0.0003356984817273213,-0.03373769741359579
0.0023498893720912484,-0.0260166323338674
0.0050354772259098195,-0.021149004348821242
0.0050354772259098195,-0.0157778286411841
0.006378271152819104,-0.012420843823910887
0.009063859006637675,-0.01326009002822919
0.0050354772259098195,-0.01896696421759365
-0.0030212863355458916,-0.021988250553139542
-0.0003356984817273213,-0.022323949034866862
0.006042572671091783,-0.022323949034866862
0.0023498893720912484,-0.022995345998321506
0.0003356984817273213,-0.025680933852140077
-0.0006713969634546426,-0.02668802929732204
-0.0023498893720912484,-0.025680933852140077
-0.0010070954451819635,-0.024338139925230793
0.0006713969634546426,-0.021988250553139542
0.003692683299000534,-0.020309758144502935
0.0010070954451819635,-0.02333104448004883
-0.0016784924086366065,-0.03105210955977722
-0.005706874189364461,-0.03944457160296025
-0.0050354772259098195,-0.04582284275577936
-0.002014190890363927,-0.04783703364614328
0.0016784924086366065,-0.04599069199664301
-0.0016784924086366065,-0.0473334859235523
-0.0016784924086366065,-0.05387960631723506
0.006042572671091783,-0.05874723430228122
0.009063859006637675,-0.06092927443350881
0.007721065079728388,-0.05941863126573587
0.0050354772259098195,-0.05874723430228122
0.006042572671091783,-0.05992217898832684
0.010406652933546959,-0.05824368657969024
0.007049668116273747,-0.05253681239032577
0.006378271152819104,-0.044480048828870064
0.0050354772259098195,-0.037094682230869
0.004364080262455177,-0.033066300450141146
-0.0003356984817273213,-0.03440909437705043
0.003692683299000534,-0.041794460975051496
0.003692683299000534,-0.04682993820096131
0.0023498893720912484,-0.04716563668268864
0.0030212863355458916,-0.04129091325246051
0.0023498893720912484,-0.03172350652323186
0.0006713969634546426,-0.025009536888685433
-0.002014190890363927,-0.019806210421911954
0.0023498893720912484,-0.01628137636377508
0.0016784924086366065,-0.01292439154650187
0.003692683299000534,-0.010574502174410621
0.006378271152819104,-0.012588693064774548
0.006378271152819104,-0.01695277332722972
0.008392462043183033,-0.021652552071412222
0.010070954451819639,-0.024338139925230793
0.007721065079728388,-0.027023727779049357
0.0050354772259098195,-0.027359426260776684
0.0013427939269092851,-0.027695124742504008
0.002014190890363927,-0.02668802929732204
0.0010070954451819635,-0.022323949034866862
0.0023498893720912484,-0.019638361181048294
0.002014190890363927,-0.022323949034866862
0.003692683299000534,-0.02937361715114061
0.004699778744182497,-0.036423285267414354
0.0016784924086366065,-0.04145876249332417
-0.0030212863355458916,-0.04666208896009766
0.002014190890363927,-0.053208209353780414
-0.0010070954451819635,-0.05857938506141757
0.0003356984817273213,-0.06428625925078202
0.003692683299000534,-0.06462195773250935
0.0010070954451819635,-0.05992217898832684
0.0006713969634546426,-0.05555809872587166
0.006378271152819104,-0.053208209353780414
0.0050354772259098195,-0.05421530479896238
0.0023498893720912484,-0.0528725108720531
0.007721065079728388,-0.049851224536507206
0.007049668116273747,-0.04414435034714275
0.010070954451819639,-0.03675898374914168
0.007049668116273747,-0.03172350652323186
0.005706874189364461,-0.03172350652323186
0.0023498893720912484,-0.03675898374914168
0.0016784924086366065,-0.03978027008468757
-0.003692683299000534,-0.03994811932555123
-0.006378271152819104,-0.03810177767605096
-0.0010070954451819635,-0.03608758678568704
0.0010070954451819635,-0.032730601968413826
0.0010070954451819635,-0.028366521705958644
0.0010070954451819635,-0.025680933852140077
0.0010070954451819635,-0.024338139925230793
0.006042572671091783,-0.021988250553139542
0.006378271152819104,-0.01628137636377508
0.006378271152819104,-0.010406652933546959
0.0050354772259098195,-0.011581597619592583
0.0023498893720912484,-0.01695277332722972
0.005706874189364461,-0.020813305867093918
0.007049668116273747,-0.01896696421759365
0.0050354772259098195,-0.014938582436865796
0.0050354772259098195,-0.014602883955138474
0.003692683299000534,-0.017959868772411687
0.003692683299000534,-0.020981155107957578
0.0023498893720912484,-0.025009536888685433
-0.0023498893720912484,-0.02668802929732204
-0.003356984817273213,-0.025009536888685433
0.0016784924086366065,-0.025680933852140077
0.0050354772259098195,-0.0323949034866865
0.0003356984817273213,-0.04313725490196078
-0.004364080262455177,-0.05119401846341649
-0.0010070954451819635,-0.05790798809796292
0.006378271152819104,-0.061432822156099784
0.004699778744182497,-0.062272068360418105
0.005706874189364461,-0.06126497291523613
0.0050354772259098195,-0.060761425192645144
0.009063859006637675,-0.06126497291523613
0.012420843823910887,-0.05857938506141757
0.010406652933546959,-0.05387960631723506
0.007721065079728388,-0.04531929503318838
0.0050354772259098195,-0.03776607919432364
0.006378271152819104,-0.03508049134050507
0.006378271152819104,-0.03457694361791409
0.007049668116273747,-0.035751888303959714
0.006378271152819104,-0.041123064011596856
0.006378271152819104,-0.04615854123750667
0.002014190890363927,-0.04582284275577936
0.0010070954451819635,-0.03978027008468757
0.0023498893720912484,-0.035416189822232394
0.0003356984817273213,-0.0323949034866865
0.0010070954451819635,-0.028366521705958644
-0.0016784924086366065,-0.0213168535896849
-0.0003356984817273213,-0.01560997940032044
-0.0023498893720912484,-0.014938582436865796
0.0010070954451819635,-0.020645456626230255
-0.0006713969634546426,-0.025680933852140077
0.0003356984817273213,-0.028030823224231328
0.0023498893720912484,-0.0260166323338674
0.0050354772259098195,-0.020981155107957578
0.003692683299000534,-0.01846341649500267
0.003692683299000534,-0.01829556725413901
0.004699778744182497,-0.020981155107957578
0.003692683299000534,-0.025009536888685433
0.002014190890363927,-0.030045014114595252
0.0050354772259098195,-0.03138780804150454
0.009063859006637675,-0.030380712596322572
0.007049668116273747,-0.03205920500495917
0.0016784924086366065,-0.03860532539864195
0.0016784924086366065,-0.048508430609597926
-0.0006713969634546426,-0.056900892652780956
-0.0016784924086366065,-0.06160067139696345
0.0006713969634546426,-0.061936369878690785
0.003692683299000534,-0.05992217898832684
0.0010070954451819635,-0.05488670176241703
0.002014190890363927,-0.05119401846341649
0.0050354772259098195,-0.05387960631723506
0.0010070954451819635,-0.056900892652780956
0.0010070954451819635,-0.05522240024414436
0.009063859006637675,-0.04783703364614328
0.011078049897001601,-0.03843747615777828
0.009063859006637675,-0.03189135576409552
0.009735255970092317,-0.03172350652323186
0.006378271152819104,-0.03474479285877775
0.0023498893720912484,-0.03944457160296025
0.0023498893720912484,-0.042801556420233464
0.007721065079728388,-0.043472953383688104
0.010406652933546959,-0.042801556420233464
0.009735255970092317,-0.03910887312123293
0.005706874189364461,-0.032730601968413826
0.003692683299000534,-0.022995345998321506
0.006378271152819104,-0.013931486991683832
0.0010070954451819635,-0.008224612802319372
0.0003356984817273213,-0.005874723430228122
-0.0003356984817273213,-0.009903105210955977
-0.0030212863355458916,-0.01829556725413901
-0.0030212863355458916,-0.025345235370412753
-0.0010070954451819635,-0.026352330815594724
-0.0010070954451819635,-0.02333104448004883
0.003692683299000534,-0.01829556725413901
0.004699778744182497,-0.016617074845502403
0.004364080262455177,-0.019638361181048294
0.003692683299000534,-0.020645456626230255
0.004699778744182497,-0.020309758144502935
0.0050354772259098195,-0.019974059662775615
0.0023498893720912484,-0.021820401312275882
0.003692683299000534,-0.025009536888685433
0.0030212863355458916,-0.030380712596322572
0.004364080262455177,-0.041123064011596856
0.003692683299000534,-0.05085831998168917
-0.0016784924086366065,-0.05790798809796292
-0.003356984817273213,-0.06025787747005417
-0.0003356984817273213,-0.06092927443350881
0.0010070954451819635,-0.061432822156099784
0.0006713969634546426,-0.06092927443350881
0.0010070954451819635,-0.05857938506141757
0.0010070954451819635,-0.05522240024414436
-0.0003356984817273213,-0.051529716945143814
-0.0003356984817273213,-0.04750133516441596
-0.0010070954451819635,-0.04615854123750667
-0.0016784924086366065,-0.04750133516441596
0.0003356984817273213,-0.048844129091325246
0.0023498893720912484,-0.04649423971923399
0.003692683299000534,-0.04582284275577936
0.007721065079728388,-0.04582284275577936
0.009063859006637675,-0.044480048828870064
0.009063859006637675,-0.04313725490196078
0.011413748378728923,-0.03978027008468757
0.011749446860456245,-0.03608758678568704
0.007721065079728388,-0.028366521705958644
0.012420843823910887,-0.01829556725413901
0.009063859006637675,-0.011078049897001601
0.0023498893720912484,-0.008560311284046692
-0.0003356984817273213,-0.01359578850995651
-0.004364080262455177,-0.017959868772411687
-0.0016784924086366065,-0.021652552071412222
0.0016784924086366065,-0.025345235370412753
0.0016784924086366065,-0.025680933852140077
0.0050354772259098195,-0.020309758144502935
0.0023498893720912484,-0.013092240787365528
-0.0003356984817273213,-0.01326009002822919
-0.0016784924086366065,-0.01829556725413901
-0.0050354772259098195,-0.02366674296177615
-0.0003356984817273213,-0.02366674296177615
0.0030212863355458916,-0.018631265735866327
-0.0003356984817273213,-0.016617074845502403
0.0030212863355458916,-0.021652552071412222
0.007385366598001068,-0.03054856183718624
0.008392462043183033,-0.037262531471732654
0.009063859006637675,-0.041794460975051496
0.007721065079728388,-0.04682993820096131
0.007721065079728388,-0.056900892652780956
0.0023498893720912484,-0.06428625925078202
0.0016784924086366065,-0.06495765621423667
0.004364080262455177,-0.06025787747005417
0.004364080262455177,-0.05555809872587166
0.007721065079728388,-0.051865415426871134
0.0050354772259098195,-0.048844129091325246
0.003692683299000534,-0.04917982757305257
0.004364080262455177,-0.049851224536507206
0.006378271152819104,-0.04649423971923399
0.006378271152819104,-0.03944457160296025
0.009063859006637675,-0.03508049134050507
0.007721065079728388,-0.035751888303959714
0.007721065079728388,-0.040451667048142216
0.009063859006637675,-0.04582284275577936
0.005706874189364461,-0.04716563668268864
0.007049668116273747,-0.043808651865415424
0.007049668116273747,-0.03508049134050507
0.0050354772259098195,-0.025680933852140077
0.0023498893720912484,-0.01846341649500267
0.005706874189364461,-0.01292439154650187
0.005706874189364461,-0.011917296101319903
0.007049668116273747,-0.017288471808957043
0.007721065079728388,-0.02400244144350347
0.004364080262455177,-0.025345235370412753
0.0010070954451819635,-0.021652552071412222
-0.0010070954451819635,-0.020477607385366595
-0.0030212863355458916,-0.021149004348821242
-0.006378271152819104,-0.020309758144502935
-0.011078049897001601,-0.017959868772411687
-0.005706874189364461,-0.017624170290684367
-0.0003356984817273213,-0.019638361181048294
0.0016784924086366065,-0.027023727779049357
0.0003356984817273213,-0.0323949034866865
0.0010070954451819635,-0.03776607919432364
0.005706874189364461,-0.03978027008468757
0.0023498893720912484,-0.03978027008468757
0.007721065079728388,-0.041794460975051496
0.009063859006637675,-0.0481727321278706
0.005706874189364461,-0.05857938506141757
0.006378271152819104,-0.06663614862287326
0.004364080262455177,-0.07133592736705577
0.0016784924086366065,-0.06730754558632791
-0.0023498893720912484,-0.05857938506141757
-0.003356984817273213,-0.051865415426871134
-0.004364080262455177,-0.048844129091325246
-0.0023498893720912484,-0.051865415426871134
0.0010070954451819635,-0.054047455558098714
0.0010070954451819635,-0.05253681239032577
0.0010070954451819635,-0.04783703364614328
0.0030212863355458916,-0.044815747310597384
0.007721065079728388,-0.043472953383688104
0.006378271152819104,-0.044480048828870064
0.003692683299000534,-0.04716563668268864
0.003692683299000534,-0.0481727321278706
-0.0003356984817273213,-0.04649423971923399
0.0003356984817273213,-0.03994811932555123
0.009063859006637675,-0.027862973983367664
0.007721065079728388,-0.017624170290684367
0.005706874189364461,-0.01359578850995651
0.003356984817273213,-0.013092240787365528
-0.0030212863355458916,-0.01292439154650187
0.0010070954451819635,-0.012588693064774548
0.003356984817273213,-0.017288471808957043
0.005706874189364461,-0.025009536888685433
0.004028381780727854,-0.028030823224231328
0.0016784924086366065,-0.025009536888685433
0.006378271152819104,-0.01829556725413901
0.007721065079728388,-0.014267185473411156
0.003692683299000534,-0.014938582436865796
0.0023498893720912484,-0.01560997940032044
0.0050354772259098195,-0.019302662699320974
0.004364080262455177,-0.022995345998321506
0.0010070954451819635,-0.025680933852140077
-0.0016784924086366065,-0.027023727779049357
0.003356984817273213,-0.027023727779049357
0.003692683299000534,-0.029709315632867935
