EMG Sensor 0
0.0
0.0
0.0
0.0
0.0
0.0
0.0
0.0
0.0
0.0
0.0
0.0
0.0
0.0
0.0
0.0
0.0
0.0
0.0
0.0
0.0
0.0
0.0
0.0
0.0
0.0
0.0
0.0
0.0
0.0
0.0
0.0
0.0
0.0
0.0
0.0
0.0
0.0
0.0
0.0
0.0
0.0
0.0
0.0
0.0
0.0
0.0
0.0
0.0
0.0
0.0
0.0
0.0
0.0
0.0
0.0
0.0
0.0
0.0
0.0
0.0
0.0
0.0
0.0
0.0
0.0
0.0
0.0
0.0
0.0
0.0
0.0
0.0
0.0
0.0
0.0
0.0
0.0
0.0
0.0
0.0
0.0
0.0
0.0
0.0
0.0
0.0
0.0
0.0
0.0
0.0
0.0
0.0
0.0
0.0
0.0
0.0
0.0
0.0
0.0
0.0
0.0
0.0
0.0
0.0
0.0
0.0
0.0
0.0
0.0
0.0
0.0
0.0
0.0
0.0
0.0
0.0
0.0
0.0
0.0
0.0
0.0
0.0
0.0
0.0
0.0
0.0
0.0
0.0
0.0
0.0
0.0
0.0
0.0
0.0
0.0
0.0
0.0
0.0
0.0
0.0
0.0
0.0
0.0
0.0
0.0
0.0
0.0
0.0
0.0
0.0
0.0
0.0
0.0
0.0
0.0
0.0
0.0
0.0
0.0
0.0
0.0
0.0
0.0
0.0
0.0
0.0
0.0
0.0
0.0
0.0
0.0
0.0
0.0
0.0
0.0
0.0
0.0
0.0
0.0
0.0
0.0
0.0
0.0
0.0
0.0
0.0
0.0
0.0
0.0
0.0
0.0
0.0
0.0
0.0
0.0
0.0
0.0
0.0
0.0
0.0
0.0
0.0
0.0
0.0
0.0
0.0
0.0
0.0
0.0
0.0
0.0
0.0
0.0
0.0
0.0
0.0
0.0
0.0
0.0
0.0
0.0
0.0
0.0
0.0
0.0
0.0
0.0
0.0
0.0
0.0
0.0
0.0
0.0
0.0
0.0
0.0
0.0
0.0
0.0
0.0
0.0
0.0
0.0
0.0
0.0
0.0
0.0
0.0
0.0
0.0
0.0
0.0
0.0
0.0
0.0
0.0
0.0
0.0
0.0
0.0
0.0
0.0
0.0
0.0
0.0
0.0
0.0
0.0
0.0
0.0
0.0
0.0
0.0
0.0
0.0
0.0
0.0
0.0
0.0
0.0
0.0
0.0
0.0
0.0
0.0
0.0
0.0
0.0
0.0
0.0
0.0
0.0
0.0
0.0
0.0
0.0
0.0
0.0
0.0
0.0
0.0
0.0
0.0
0.0
0.0
0.0
0.0
0.0
0.0
0.0
0.0
0.0
0.0
0.0
0.0
0.0
0.0
0.0
0.0
0.0
0.0
0.0
0.0
0.0
0.0
0.0
0.0
0.0
0.0
0.0
0.0
0.0
0.0
0.0
0.0
0.0
0.0
0.0
0.0
0.0
0.0
0.0
0.0
0.0
0.0
0.0
0.0
0.0
0.0
0.0
0.0
0.0
0.0
0.0
0.0
0.0
0.0
0.0
0.0
0.0
0.0
0.0
0.0
0.0
0.0
0.0
0.0
0.0
0.0
0.0
0.0
0.0
0.0
0.0
0.0
0.0
0.0
0.0
0.0
0.0
0.0
0.0
0.0
0.0
0.0
0.0
0.0
0.0
0.0
0.0
0.0
0.0
0.0
0.0
0.0
0.0
0.0
0.0
0.0
0.0
0.0
0.0
0.0
0.0
0.0
0.0
0.0
0.0
0.0
0.0
0.0
0.0
0.0
0.0
0.0
0.0
0.0
0.0
0.0
0.0
0.0
0.0
0.0
0.0
0.0
0.0
0.0
0.0
0.0
0.0
0.0
0.0
0.0
0.0
0.0
0.0
0.0
0.0
0.0
0.0
0.0
0.0
0.0
0.0
0.0
0.0
0.0
0.0
0.0
0.0
0.0
0.0
0.0
0.0
0.0
0.0
0.0
0.0
0.0
0.0
0.0
0.0
0.0
0.0
0.0
0.0
0.0
0.0
0.0
0.0
0.0
0.0
0.0
0.0
0.0
0.0
0.0
0.0
0.0
0.0
0.0
0.0
0.0
0.0
0.0
0.0
0.0
0.0
0.0
0.0
0.0
0.0
0.0
0.0
0.0
0.0
0.0
0.0
0.0
0.0
0.0
0.0
0.0
0.0
0.0
0.0
0.0
0.0
0.0
0.0
0.0
0.0
0.0
0.0
0.0
0.0
0.0
0.0
0.0
0.0
0.0
0.0
0.0
0.0
0.0
0.0
0.0
0.0
0.0
0.0
0.0
0.0
0.0
0.0
0.0
0.0
0.0
0.0
0.0
0.0
0.0
0.0
0.0
0.0
0.0
0.0
0.0
0.0
0.0
0.0
0.0
0.0
0.0
0.0
0.0
0.0
0.0
0.0
0.0
0.0
0.0
0.0
0.0
0.0
0.0
0.0
0.0
0.0
0.0
0.0
0.0
0.0
0.0
0.0
0.0
0.0
0.0
0.0
0.0
0.0
0.0
0.0
0.0
0.0
0.0
0.0
0.0
0.0
0.0
0.0
0.0
0.0
0.0
0.0
0.0
0.0
0.0
0.0
0.0
0.0
0.0
0.0
0.0
0.0
0.0
0.0
0.0
0.0
0.0
0.0
0.0
0.0
0.0
0.0
0.0
0.0
0.0
0.0
0.0
0.0
0.0
0.0
0.0
0.0
0.0
0.0
0.0
0.0
0.0
0.0
0.0
0.0
0.0
0.0
0.0
0.0
0.0
0.0
0.0
0.0
0.0
0.0
0.0
0.0
0.0
0.0
0.0
0.0
0.0
0.0
0.0
0.0
0.0
0.0
0.0
0.0
0.0
0.0
0.0
0.0
0.0
0.0
0.0
0.0
0.0
0.0
0.0
0.0
0.0
0.0
0.0
0.0
0.0
0.0
0.0
0.0
0.0
0.0
0.0
-0.011078049897001601
0.0023498893720912484
0.007049668116273747
0.010070954451819639
0.012420843823910887
0.014435034714274816
0.015106431677729458
0.015106431677729458
0.015442130159456776
0.0157778286411841
0.01846341649500267
0.020477607385366595
0.01913481345845731
0.011749446860456245
0.0023498893720912484
-0.003692683299000534
-0.007049668116273747
-0.007049668116273747
-0.007049668116273747
-0.007049668116273747
-0.004364080262455177
-0.0023498893720912484
0.002014190890363927
0.006378271152819104
0.008392462043183033
0.010406652933546959
0.014435034714274816
0.015106431677729458
0.0157778286411841
0.015106431677729458
0.0157778286411841
0.01846341649500267
0.021149004348821242
0.020477607385366595
0.012420843823910887
0.0023498893720912484
-0.0030212863355458916
-0.007049668116273747
-0.008392462043183033
-0.007049668116273747
-0.005706874189364461
-0.0050354772259098195
-0.0030212863355458916
0.002014190890363927
0.007385366598001068
0.009063859006637675
0.011413748378728923
0.014435034714274816
0.0157778286411841
0.0157778286411841
0.0157778286411841
0.017120622568093383
0.020477607385366595
0.022491798275730522
0.021149004348821242
0.013092240787365528
0.0023498893720912484
-0.004364080262455177
-0.007721065079728388
-0.009735255970092317
-0.008392462043183033
-0.006713969634546426
-0.005706874189364461
-0.0030212863355458916
0.0016784924086366065
0.007721065079728388
0.008392462043183033
0.010406652933546959
0.014435034714274816
0.0157778286411841
0.016449225604638743
0.0157778286411841
0.017120622568093383
0.020813305867093918
0.02349889372091249
0.021820401312275882
0.014435034714274816
0.0023498893720912484
-0.004364080262455177
-0.008392462043183033
-0.009399557488364994
-0.008392462043183033
-0.007721065079728388
-0.006378271152819104
-0.003692683299000534
0.0010070954451819635
0.006378271152819104
0.007721065079728388
0.009735255970092317
0.014099336232547494
0.015442130159456776
0.0157778286411841
0.015442130159456776
0.016449225604638743
0.019806210421911954
0.021820401312275882
0.021149004348821242
0.013092240787365528
0.0023498893720912484
-0.005706874189364461
-0.009063859006637675
-0.009735255970092317
-0.009063859006637675
-0.007721065079728388
-0.007049668116273747
-0.003692683299000534
0.0010070954451819635
0.006378271152819104
0.007385366598001068
0.010406652933546959
0.01376363775082017
0.0157778286411841
0.016449225604638743
0.016784924086366067
0.017456321049820707
0.021149004348821242
0.023834592202639806
0.022491798275730522
0.015442130159456776
0.003692683299000534
-0.004364080262455177
-0.008392462043183033
-0.009735255970092317
-0.009735255970092317
-0.008392462043183033
-0.007049668116273747
-0.004364080262455177
0.0010070954451819635
0.006378271152819104
0.007049668116273747
0.009735255970092317
0.01376363775082017
0.0157778286411841
0.016449225604638743
0.015442130159456776
0.017120622568093383
0.020477607385366595
0.02349889372091249
0.022491798275730522
0.014435034714274816
0.0023498893720912484
-0.004699778744182497
-0.009735255970092317
-0.011078049897001601
-0.010070954451819639
-0.008392462043183033
-0.007049668116273747
-0.004364080262455177
0.0010070954451819635
0.006378271152819104
0.007721065079728388
0.009735255970092317
0.014435034714274816
0.016449225604638743
0.017120622568093383
0.017120622568093383
0.01846341649500267
0.022491798275730522
0.025177386129549097
0.023834592202639806
0.016449225604638743
0.003692683299000534
-0.004364080262455177
-0.008392462043183033
-0.011078049897001601
-0.010406652933546959
-0.009735255970092317
-0.008392462043183033
-0.004364080262455177
0.0016784924086366065
0.006378271152819104
0.007385366598001068
0.010406652933546959
0.014435034714274816
0.016784924086366067
0.017792019531548024
0.017120622568093383
0.01812771801327535
0.023163195239185166
0.02652018005645838
0.02584878309300374
0.016449225604638743
0.0023498893720912484
-0.0050354772259098195
-0.009735255970092317
-0.011749446860456245
-0.011413748378728923
-0.009735255970092317
-0.009063859006637675
-0.005706874189364461
0.0010070954451819635
0.006378271152819104
0.007049668116273747
0.010406652933546959
0.014435034714274816
0.016449225604638743
0.017792019531548024
0.017792019531548024
0.019806210421911954
0.023163195239185166
0.02652018005645838
0.02584878309300374
0.017120622568093383
0.003356984817273213
-0.006378271152819104
-0.009735255970092317
-0.011078049897001601
-0.011078049897001601
-0.009063859006637675
-0.007721065079728388
-0.004699778744182497
0.0010070954451819635
0.005706874189364461
0.006378271152819104
0.010406652933546959
0.015106431677729458
0.017120622568093383
0.017792019531548024
0.017120622568093383
0.019470511940184634
0.023834592202639806
0.02584878309300374
0.025177386129549097
0.0157778286411841
0.0023498893720912484
-0.005706874189364461
-0.011078049897001601
-0.011749446860456245
-0.011078049897001601
-0.009735255970092317
-0.008392462043183033
-0.004364080262455177
0.0010070954451819635
0.006378271152819104
0.006378271152819104
0.010406652933546959
0.014435034714274816
0.017120622568093383
0.017792019531548024
0.017120622568093383
0.019470511940184634
0.023834592202639806
0.02652018005645838
0.025513084611276417
0.016449225604638743
0.0023498893720912484
-0.005706874189364461
-0.010406652933546959
-0.011749446860456245
-0.011078049897001601
-0.009735255970092317
-0.008392462043183033
-0.0050354772259098195
0.0006713969634546426
0.006378271152819104
0.0050354772259098195
0.010406652933546959
0.014435034714274816
0.016449225604638743
0.01846341649500267
0.017792019531548024
0.01846341649500267
0.023834592202639806
0.02652018005645838
0.026184481574731057
0.016449225604638743
0.0023498893720912484
-0.005706874189364461
-0.009735255970092317
-0.011078049897001601
-0.011078049897001601
-0.009735255970092317
-0.008392462043183033
-0.004364080262455177
0.0016784924086366065
0.006042572671091783
0.006378271152819104
0.010406652933546959
0.015106431677729458
0.017120622568093383
0.017120622568093383
0.017456321049820707
0.019470511940184634
0.023834592202639806
0.02652018005645838
0.025177386129549097
0.016784924086366067
0.0023498893720912484
-0.007049668116273747
-0.011413748378728923
-0.011749446860456245
-0.011749446860456245
-0.010406652933546959
-0.008392462043183033
-0.004364080262455177
0.0010070954451819635
0.006378271152819104
0.006378271152819104
0.010406652933546959
0.015442130159456776
0.017792019531548024
0.01812771801327535
0.01846341649500267
0.019806210421911954
0.023834592202639806
0.027862973983367664
0.02652018005645838
0.016449225604638743
0.0030212863355458916
-0.005706874189364461
-0.010406652933546959
-0.011078049897001601
-0.011078049897001601
-0.010406652933546959
-0.008392462043183033
-0.004699778744182497
0.0010070954451819635
0.0050354772259098195
0.006042572671091783
0.010406652933546959
0.015106431677729458
0.017120622568093383
0.017120622568093383
0.017120622568093383
0.01846341649500267
0.023834592202639806
0.02584878309300374
0.023834592202639806
0.0157778286411841
0.0016784924086366065
-0.006378271152819104
-0.011078049897001601
-0.011413748378728923
-0.011078049897001601
-0.009735255970092317
-0.008392462043183033
-0.004364080262455177
0.0016784924086366065
0.006378271152819104
0.007049668116273747
0.011078049897001601
0.0157778286411841
0.017120622568093383
0.017120622568093383
0.017120622568093383
0.01846341649500267
0.023834592202639806
0.025177386129549097
0.023834592202639806
0.014770733196002136
0.0016784924086366065
-0.007049668116273747
-0.010406652933546959
-0.011078049897001601
-0.011078049897001601
-0.008728160524910353
-0.008392462043183033
-0.004364080262455177
0.0023498893720912484
0.006378271152819104
0.007049668116273747
0.011078049897001601
0.015106431677729458
0.017792019531548024
0.017792019531548024
0.017120622568093383
0.01913481345845731
0.023834592202639806
0.02584878309300374
0.025177386129549097
0.015106431677729458
0.0023498893720912484
-0.006042572671091783
-0.011078049897001601
-0.011749446860456245
-0.011078049897001601
-0.009735255970092317
-0.008392462043183033
-0.004364080262455177
0.0016784924086366065
0.007049668116273747
0.007049668116273747
0.010406652933546959
0.015106431677729458
0.017120622568093383
0.017456321049820707
0.017792019531548024
0.019806210421911954
0.023834592202639806
0.02584878309300374
0.024505989166094453
0.014435034714274816
0.0016784924086366065
-0.006378271152819104
-0.011078049897001601
-0.011413748378728923
-0.010406652933546959
-0.009063859006637675
-0.008392462043183033
-0.003692683299000534
0.0023498893720912484
0.007049668116273747
0.007385366598001068
0.011413748378728923
0.015106431677729458
0.017120622568093383
0.017792019531548024
0.017120622568093383
0.01846341649500267
0.023834592202639806
0.02719157701991302
0.025177386129549097
0.0157778286411841
0.0023498893720912484
-0.006378271152819104
-0.011078049897001601
-0.011749446860456245
-0.011749446860456245
-0.009063859006637675
-0.008392462043183033
-0.004364080262455177
0.0023498893720912484
0.007049668116273747
0.007049668116273747
0.011749446860456245
0.0157778286411841
0.017120622568093383
0.017792019531548024
0.017120622568093383
0.019806210421911954
0.024505989166094453
0.02652018005645838
0.023834592202639806
0.014435034714274816
0.0010070954451819635
-0.007049668116273747
-0.011078049897001601
-0.012420843823910887
-0.011078049897001601
-0.009735255970092317
-0.008392462043183033
-0.004364080262455177
0.002014190890363927
0.006378271152819104
0.006378271152819104
0.011413748378728923
0.0157778286411841
0.017120622568093383
0.017792019531548024
0.016784924086366067
0.019806210421911954
0.025177386129549097
0.02752727550164034
0.025177386129549097
0.014435034714274816
0.0010070954451819635
-0.007721065079728388
-0.011749446860456245
-0.013092240787365528
-0.011749446860456245
-0.011078049897001601
-0.009063859006637675
-0.004364080262455177
0.0016784924086366065
0.006378271152819104
0.006713969634546426
0.011078049897001601
0.015442130159456776
0.01846341649500267
0.01846341649500267
0.017792019531548024
0.020813305867093918
0.02584878309300374
0.02853437094682231
0.02652018005645838
0.014435034714274816
0.0003356984817273213
-0.007049668116273747
-0.011749446860456245
-0.01376363775082017
-0.012420843823910887
-0.011749446860456245
-0.009063859006637675
-0.0050354772259098195
0.0023498893720912484
0.006378271152819104
0.006713969634546426
0.011749446860456245
0.0157778286411841
0.01846341649500267
0.01913481345845731
0.01846341649500267
0.021149004348821242
0.02752727550164034
0.03054856183718624
0.02853437094682231
0.015442130159456776
-0.0003356984817273213
-0.009399557488364994
-0.013092240787365528
-0.014435034714274816
-0.01376363775082017
-0.012420843823910887
-0.010406652933546959
-0.005706874189364461
0.0010070954451819635
0.006378271152819104
0.006378271152819104
0.012756542305638208
0.0157778286411841
0.01846341649500267
0.019806210421911954
0.020477607385366595
0.023163195239185166
0.029205767910276948
0.03256275272755016
0.03054856183718624
0.017120622568093383
-0.0003356984817273213
-0.010406652933546959
-0.016449225604638743
-0.017456321049820707
-0.016449225604638743
-0.015106431677729458
-0.012420843823910887
-0.007049668116273747
0.0016784924086366065
0.006378271152819104
0.006378271152819104
0.013092240787365528
0.017456321049820707
0.021149004348821242
0.021820401312275882
0.022156099794003202
0.02584878309300374
0.033234149691004806
0.03659113450827802
0.033234149691004806
0.017792019531548024
-0.0016784924086366065
-0.014435034714274816
-0.020477607385366595
-0.021820401312275882
-0.019806210421911954
-0.017792019531548024
-0.015442130159456776
-0.009063859006637675
0.0010070954451819635
0.004364080262455177
0.006378271152819104
0.014435034714274816
0.019806210421911954
0.023834592202639806
0.023834592202639806
0.023834592202639806
0.027862973983367664
0.035919737544823374
0.03994811932555123
0.03659113450827802
0.019806210421911954
-0.0010070954451819635
-0.01376363775082017
-0.020477607385366595
-0.022491798275730522
-0.021149004348821242
-0.01913481345845731
-0.016449225604638743
-0.010406652933546959
0.0003356984817273213
0.0050354772259098195
0.006042572671091783
0.014435034714274816
0.019470511940184634
0.022491798275730522
0.023834592202639806
0.023834592202639806
0.02853437094682231
0.035919737544823374
0.03860532539864195
0.035248340581368734
0.01846341649500267
-0.0030212863355458916
-0.016449225604638743
-0.021820401312275882
-0.023834592202639806
-0.021820401312275882
-0.020477607385366595
-0.017120622568093383
-0.010406652933546959
-0.0003356984817273213
0.0050354772259098195
0.007049668116273747
0.015106431677729458
0.019470511940184634
0.022491798275730522
0.023163195239185166
0.023163195239185166
0.027862973983367664
0.035248340581368734
0.03826962691691462
0.03424124513618677
0.017120622568093383
-0.0030212863355458916
-0.016449225604638743
-0.021820401312275882
-0.023163195239185166
-0.022491798275730522
-0.019470511940184634
-0.016449225604638743
-0.011078049897001601
-0.0003356984817273213
0.0050354772259098195
0.006713969634546426
0.014435034714274816
0.021149004348821242
0.023163195239185166
0.023834592202639806
0.023834592202639806
0.029205767910276948
0.035919737544823374
0.03860532539864195
0.035919737544823374
0.01913481345845731
-0.0030212863355458916
-0.015106431677729458
-0.021149004348821242
-0.023163195239185166
-0.021820401312275882
-0.020477607385366595
-0.017792019531548024
-0.010070954451819639
0.0003356984817273213
0.003692683299000534
0.0050354772259098195
0.014435034714274816
0.019806210421911954
0.023163195239185166
0.023834592202639806
0.023834592202639806
0.02853437094682231
0.035919737544823374
0.03860532539864195
0.035248340581368734
0.01913481345845731
-0.002014190890363927
-0.015106431677729458
-0.020477607385366595
-0.022491798275730522
-0.021820401312275882
-0.020477607385366595
-0.01913481345845731
-0.011078049897001601
-0.0003356984817273213
0.004364080262455177
0.0050354772259098195
0.013092240787365528
0.019806210421911954
0.022491798275730522
0.023834592202639806
0.023834592202639806
0.027862973983367664
0.035248340581368734
0.03860532539864195
0.03457694361791409
0.01913481345845731
-0.0016784924086366065
-0.014099336232547494
-0.019806210421911954
-0.021820401312275882
-0.020477607385366595
-0.019806210421911954
-0.016784924086366067
-0.010070954451819639
-0.0003356984817273213
0.003692683299000534
0.0050354772259098195
0.013092240787365528
0.01913481345845731
0.021149004348821242
0.022491798275730522
0.023163195239185166
0.02853437094682231
0.035919737544823374
0.037262531471732654
0.03424124513618677
0.01846341649500267
-0.0016784924086366065
-0.01376363775082017
-0.019806210421911954
-0.021820401312275882
-0.021149004348821242
-0.01913481345845731
-0.016449225604638743
-0.009735255970092317
0.0006713969634546426
0.003692683299000534
0.0050354772259098195
0.013092240787365528
0.01913481345845731
0.022156099794003202
0.022491798275730522
0.022491798275730522
0.027862973983367664
0.035248340581368734
0.037262531471732654
0.03457694361791409
0.019470511940184634
-0.0010070954451819635
-0.01376363775082017
-0.019806210421911954
-0.021149004348821242
-0.019806210421911954
-0.01913481345845731
-0.015442130159456776
-0.009063859006637675
0.0016784924086366065
0.0023498893720912484
0.0050354772259098195
0.01376363775082017
0.01913481345845731
0.021149004348821242
0.021820401312275882
0.021820401312275882
0.02719157701991302
0.035248340581368734
0.037262531471732654
0.032898451209277486
0.01846341649500267
-0.0006713969634546426
-0.013092240787365528
-0.01913481345845731
-0.020813305867093918
-0.01913481345845731
-0.016449225604638743
-0.014435034714274816
-0.008392462043183033
0.0023498893720912484
0.003692683299000534
0.0050354772259098195
0.012420843823910887
0.01846341649500267
0.021149004348821242
0.021149004348821242
0.021820401312275882
0.02652018005645838
0.03424124513618677
0.035919737544823374
0.032898451209277486
0.017120622568093383
-0.0023498893720912484
-0.01376363775082017
-0.01913481345845731
-0.020477607385366595
-0.01846341649500267
-0.017120622568093383
-0.014435034714274816
-0.008392462043183033
0.0013427939269092851
0.003692683299000534
0.0050354772259098195
0.013092240787365528
0.019806210421911954
0.022156099794003202
0.021149004348821242
0.021149004348821242
0.02752727550164034
0.03457694361791409
0.037262531471732654
0.03256275272755016
0.017792019531548024
-0.0016784924086366065
-0.012420843823910887
-0.01913481345845731
-0.020813305867093918
-0.01913481345845731
-0.016449225604638743
-0.014435034714274816
-0.008392462043183033
0.0023498893720912484
0.003356984817273213
0.0050354772259098195
0.013092240787365528
0.01846341649500267
0.021149004348821242
0.021820401312275882
0.022156099794003202
0.027862973983367664
0.03457694361791409
0.03692683299000534
0.033569848172732134
0.01846341649500267
-0.0016784924086366065
-0.012420843823910887
-0.01913481345845731
-0.019806210421911954
-0.01913481345845731
-0.017120622568093383
-0.014099336232547494
-0.007049668116273747
0.0016784924086366065
0.0030212863355458916
0.006042572671091783
0.013092240787365528
0.01846341649500267
0.021149004348821242
0.021820401312275882
0.021820401312275882
0.02752727550164034
0.03457694361791409
0.0362554360265507
0.03189135576409552
0.016784924086366067
-0.0016784924086366065
-0.012420843823910887
-0.01812771801327535
-0.01913481345845731
-0.017792019531548024
-0.0157778286411841
-0.013092240787365528
-0.006378271152819104
0.0023498893720912484
0.003692683299000534
0.005706874189364461
0.013092240787365528
0.017792019531548024
0.020813305867093918
0.021820401312275882
0.021820401312275882
0.02652018005645838
0.03390554665445944
0.035919737544823374
0.03121995880064088
0.0157778286411841
-0.003356984817273213
-0.01376363775082017
-0.01812771801327535
-0.019806210421911954
-0.01913481345845731
-0.016449225604638743
-0.01376363775082017
-0.007049668116273747
0.0016784924086366065
0.003356984817273213
0.006042572671091783
0.014435034714274816
0.019806210421911954
0.021149004348821242
0.021149004348821242
0.021149004348821242
0.02652018005645838
0.033234149691004806
0.035248340581368734
0.03189135576409552
0.015106431677729458
-0.003692683299000534
-0.01376363775082017
-0.01812771801327535
-0.01913481345845731
-0.01846341649500267
-0.0157778286411841
-0.012420843823910887
-0.006378271152819104
0.0023498893720912484
0.003692683299000534
0.006378271152819104
0.014099336232547494
0.01846341649500267
0.020477607385366595
0.021820401312275882
0.022156099794003202
0.02652018005645838
0.033234149691004806
0.035248340581368734
0.03054856183718624
0.014099336232547494
-0.0030212863355458916
-0.01376363775082017
-0.017792019531548024
-0.01913481345845731
-0.017792019531548024
-0.0157778286411841
-0.012756542305638208
-0.006378271152819104
0.0016784924086366065
0.003356984817273213
0.006378271152819104
0.014435034714274816
0.01846341649500267
0.019806210421911954
0.021149004348821242
0.021820401312275882
0.02652018005645838
0.03256275272755016
0.03457694361791409
0.03121995880064088
0.014435034714274816
-0.0030212863355458916
-0.012756542305638208
-0.017120622568093383
-0.01812771801327535
-0.016449225604638743
-0.015106431677729458
-0.012420843823910887
-0.005706874189364461
0.0023498893720912484
0.003692683299000534
0.006378271152819104
0.013092240787365528
0.017120622568093383
0.01913481345845731
0.021149004348821242
0.022491798275730522
0.02652018005645838
0.03189135576409552
0.03457694361791409
0.029205767910276948
0.013092240787365528
-0.0030212863355458916
-0.012420843823910887
-0.016449225604638743
-0.017792019531548024
-0.016449225604638743
-0.015106431677729458
-0.012420843823910887
-0.005706874189364461
0.003356984817273213
0.003356984817273213
0.006378271152819104
0.014099336232547494
0.017792019531548024
0.019470511940184634
0.020477607385366595
0.021149004348821242
0.025177386129549097
0.03121995880064088
0.03189135576409552
0.027862973983367664
0.013092240787365528
-0.0030212863355458916
-0.011078049897001601
-0.0157778286411841
-0.016449225604638743
-0.0157778286411841
-0.01376363775082017
-0.011078049897001601
-0.004364080262455177
0.0030212863355458916
0.003692683299000534
0.007721065079728388
0.01376363775082017
0.017792019531548024
0.019806210421911954
0.01913481345845731
0.019806210421911954
0.02652018005645838
0.03054856183718624
0.03121995880064088
0.027862973983367664
0.013092240787365528
-0.003356984817273213
-0.011749446860456245
-0.015442130159456776
-0.0157778286411841
-0.015106431677729458
-0.01376363775082017
-0.010406652933546959
-0.004364080262455177
0.003692683299000534
0.0050354772259098195
0.007721065079728388
0.01376363775082017
0.01812771801327535
0.020141908903639278
0.020477607385366595
0.020477607385366595
0.02584878309300374
0.03054856183718624
0.03121995880064088
0.02652018005645838
0.011749446860456245
-0.0030212863355458916
-0.011078049897001601
-0.015106431677729458
-0.0157778286411841
-0.014435034714274816
-0.012420843823910887
-0.009735255970092317
-0.003692683299000534
0.003692683299000534
0.004364080262455177
0.007721065079728388
0.015106431677729458
0.017792019531548024
0.01913481345845731
0.019806210421911954
0.020477607385366595
0.025177386129549097
0.029205767910276948
0.03121995880064088
0.02584878309300374
0.011749446860456245
-0.0030212863355458916
-0.011413748378728923
-0.015106431677729458
-0.015106431677729458
-0.01376363775082017
-0.012420843823910887
-0.009735255970092317
-0.003692683299000534
0.0030212863355458916
0.003692683299000534
0.007049668116273747
0.013092240787365528
0.017120622568093383
0.019806210421911954
0.019806210421911954
0.019806210421911954
0.023834592202639806
0.029205767910276948
0.03054856183718624
0.025177386129549097
0.011749446860456245
-0.003692683299000534
-0.011413748378728923
-0.014435034714274816
-0.015106431677729458
-0.01376363775082017
-0.012420843823910887
-0.011078049897001601
-0.004364080262455177
0.003356984817273213
0.004699778744182497
0.007721065079728388
0.014435034714274816
0.017792019531548024
0.01846341649500267
0.019806210421911954
0.019806210421911954
0.025177386129549097
0.03054856183718624
0.03054856183718624
0.025177386129549097
0.010070954451819639
-0.004364080262455177
-0.011749446860456245
-0.015106431677729458
-0.014770733196002136
-0.01376363775082017
-0.012420843823910887
-0.009735255970092317
-0.004364080262455177
0.003692683299000534
0.0050354772259098195
0.007721065079728388
0.013092240787365528
0.017792019531548024
0.019470511940184634
0.01913481345845731
0.019806210421911954
0.025177386129549097
0.03054856183718624
0.03189135576409552
0.02584878309300374
0.010406652933546959
-0.003692683299000534
-0.012420843823910887
-0.015106431677729458
-0.015106431677729458
-0.01376363775082017
-0.012756542305638208
-0.009735255970092317
-0.004364080262455177
0.003692683299000534
0.0050354772259098195
0.007721065079728388
0.014435034714274816
0.017792019531548024
0.020141908903639278
0.019806210421911954
0.020477607385366595
0.025177386129549097
0.03121995880064088
0.03121995880064088
0.02584878309300374
0.010406652933546959
-0.003692683299000534
-0.011749446860456245
-0.0157778286411841
-0.015442130159456776
-0.015106431677729458
-0.01376363775082017
-0.011078049897001601
-0.004364080262455177
0.003692683299000534
0.004699778744182497
0.007385366598001068
0.014435034714274816
0.017792019531548024
0.019806210421911954
0.019806210421911954
0.021149004348821242
0.02584878309300374
0.03121995880064088
0.03121995880064088
0.025177386129549097
0.010070954451819639
-0.004364080262455177
-0.012420843823910887
-0.016449225604638743
-0.016449225604638743
-0.014435034714274816
-0.01376363775082017
-0.011078049897001601
-0.0050354772259098195
0.0023498893720912484
0.004699778744182497
0.007385366598001068
0.013092240787365528
0.017792019531548024
0.019806210421911954
0.019806210421911954
0.020477607385366595
0.02652018005645838
0.03189135576409552
0.03189135576409552
0.02652018005645838
0.010406652933546959
-0.004364080262455177
-0.013092240787365528
-0.016449225604638743
-0.017120622568093383
-0.015106431677729458
-0.01376363775082017
-0.011749446860456245
-0.005706874189364461
0.0023498893720912484
0.003692683299000534
0.006378271152819104
0.01376363775082017
0.01846341649500267
0.019806210421911954
0.019806210421911954
0.020813305867093918
0.02652018005645838
0.03256275272755016
0.03390554665445944
0.02719157701991302
0.009735255970092317
-0.005706874189364461
-0.01376363775082017
-0.017792019531548024
-0.017792019531548024
-0.016449225604638743
-0.015442130159456776
-0.01376363775082017
-0.007049668116273747
0.0010070954451819635
0.0030212863355458916
0.007721065079728388
0.014435034714274816
0.01846341649500267
0.020477607385366595
0.020813305867093918
0.021820401312275882
0.029205767910276948
0.035248340581368734
0.03558403906309605
0.02853437094682231
0.011749446860456245
-0.005706874189364461
-0.014435034714274816
-0.01913481345845731
-0.01913481345845731
-0.017792019531548024
-0.017120622568093383
-0.01376363775082017
-0.008392462043183033
-0.0003356984817273213
0.0023498893720912484
0.007049668116273747
0.015106431677729458
0.019806210421911954
0.022491798275730522
0.021820401312275882
0.023163195239185166
0.03054856183718624
0.03659113450827802
0.037262531471732654
0.03121995880064088
0.011749446860456245
-0.0050354772259098195
-0.014435034714274816
-0.01913481345845731
-0.019806210421911954
-0.01812771801327535
-0.017792019531548024
-0.016449225604638743
-0.010070954451819639
-0.0010070954451819635
0.0030212863355458916
0.007721065079728388
0.015442130159456776
0.020477607385366595
0.022491798275730522
0.023163195239185166
0.023834592202639806
0.03189135576409552
0.037262531471732654
0.037262531471732654
0.0315556572823682
0.012420843823910887
-0.0050354772259098195
-0.014435034714274816
-0.01913481345845731
-0.019806210421911954
-0.01913481345845731
-0.01812771801327535
-0.0157778286411841
-0.009735255970092317
-0.0016784924086366065
0.0023498893720912484
0.007721065079728388
0.015442130159456776
0.019806210421911954
0.022491798275730522
0.022491798275730522
0.023834592202639806
0.03189135576409552
0.037262531471732654
0.03860532539864195
0.03054856183718624
0.011749446860456245
-0.005706874189364461
-0.015442130159456776
-0.019806210421911954
-0.019806210421911954
-0.01913481345845731
-0.01846341649500267
-0.016449225604638743
-0.011078049897001601
-0.0010070954451819635
0.0023498893720912484
0.007049668116273747
0.015106431677729458
0.019806210421911954
0.023163195239185166
0.023163195239185166
0.023834592202639806
0.03054856183718624
0.037262531471732654
0.037262531471732654
0.03054856183718624
0.011749446860456245
-0.005706874189364461
-0.015106431677729458
-0.019470511940184634
-0.021149004348821242
-0.019806210421911954
-0.01913481345845731
-0.016449225604638743
-0.010070954451819639
-0.0010070954451819635
0.002014190890363927
0.006378271152819104
0.015442130159456776
0.019806210421911954
0.021820401312275882
0.022491798275730522
0.025177386129549097
0.03256275272755016
0.03927672236209659
0.03994811932555123
0.03189135576409552
0.012420843823910887
-0.006042572671091783
-0.016449225604638743
-0.020477607385366595
-0.021820401312275882
-0.021820401312275882
-0.020477607385366595
-0.017120622568093383
-0.011078049897001601
-0.0016784924086366065
0.0016784924086366065
0.007721065079728388
0.016449225604638743
0.021149004348821242
0.023834592202639806
0.024505989166094453
0.02652018005645838
0.035248340581368734
0.041962310215915156
0.04129091325246051
0.033234149691004806
0.012420843823910887
-0.007049668116273747
-0.017120622568093383
-0.023163195239185166
-0.023163195239185166
-0.022156099794003202
-0.021820401312275882
-0.01913481345845731
-0.011078049897001601
-0.0010070954451819635
0.0010070954451819635
0.007721065079728388
0.016784924086366067
0.021149004348821242
0.023834592202639806
0.023834592202639806
0.02652018005645838
0.035919737544823374
0.0426337071793698
0.0426337071793698
0.03457694361791409
0.013092240787365528
-0.007721065079728388
-0.01846341649500267
-0.024505989166094453
-0.024505989166094453
-0.023834592202639806
-0.023163195239185166
-0.020477607385366595
-0.011749446860456245
-0.0010070954451819635
0.0023498893720912484
0.007721065079728388
0.017792019531548024
0.023163195239185166
0.025177386129549097
0.025177386129549097
0.02887006942854963
0.03860532539864195
0.04531929503318838
0.044647898069733724
0.035919737544823374
0.014099336232547494
-0.008392462043183033
-0.019806210421911954
-0.025177386129549097
-0.02719157701991302
-0.02584878309300374
-0.024841687647821773
-0.021820401312275882
-0.013092240787365528
-0.0023498893720912484
0.0010070954451819635
0.007385366598001068
0.017120622568093383
0.023163195239185166
0.026184481574731057
0.02584878309300374
0.029205767910276948
0.03860532539864195
0.04599069199664301
0.04531929503318838
0.037262531471732654
0.015106431677729458
-0.008392462043183033
-0.020477607385366595
-0.026184481574731057
-0.02719157701991302
-0.02584878309300374
-0.02584878309300374
-0.021820401312275882
-0.012420843823910887
-0.0003356984817273213
-0.0006713969634546426
0.006713969634546426
0.016449225604638743
0.021820401312275882
0.025177386129549097
0.026184481574731057
0.029205767910276948
0.03894102388036927
0.04531929503318838
0.04531929503318838
0.03692683299000534
0.014435034714274816
-0.008392462043183033
-0.020477607385366595
-0.02584878309300374
-0.02719157701991302
-0.02584878309300374
-0.02584878309300374
-0.021820401312275882
-0.012420843823910887
-0.0016784924086366065
-0.0003356984817273213
0.007721065079728388
0.017792019531548024
0.022491798275730522
0.025177386129549097
0.02584878309300374
0.029205767910276948
0.03961242084382391
0.0473334859235523
0.04599069199664301
0.037262531471732654
0.014435034714274816
-0.007721065079728388
-0.020477607385366595
-0.02584878309300374
-0.027862973983367664
-0.02719157701991302
-0.026184481574731057
-0.023163195239185166
-0.01376363775082017
-0.0023498893720912484
-0.0003356984817273213
0.007049668116273747
0.0157778286411841
0.022491798275730522
0.02584878309300374
0.02652018005645838
0.029205767910276948
0.03961242084382391
0.0473334859235523
0.04599069199664301
0.037262531471732654
0.015106431677729458
-0.008392462043183033
-0.020813305867093918
-0.02719157701991302
-0.027862973983367664
-0.02719157701991302
-0.02719157701991302
-0.023163195239185166
-0.012756542305638208
-0.0016784924086366065
-0.0010070954451819635
0.006378271152819104
0.017120622568093383
0.023163195239185166
0.02584878309300374
0.02584878309300374
0.029205767910276948
0.04129091325246051
0.049347676813916226
0.04800488288700694
0.03860532539864195
0.014435034714274816
-0.008392462043183033
-0.020813305867093918
-0.02752727550164034
-0.02887006942854963
-0.027862973983367664
-0.027862973983367664
-0.023163195239185166
-0.01376363775082017
-0.0030212863355458916
-0.0010070954451819635
0.007385366598001068
0.017120622568093383
0.023834592202639806
0.027862973983367664
0.02853437094682231
0.03121995880064088
0.042298008697642483
0.050019073777370866
0.04800488288700694
0.03994811932555123
0.0157778286411841
-0.009063859006637675
-0.021820401312275882
-0.02853437094682231
-0.029877164873731592
-0.029205767910276948
-0.02887006942854963
-0.02584878309300374
-0.015106431677729458
-0.003356984817273213
-0.0013427939269092851
0.007049668116273747
0.017120622568093383
0.023834592202639806
0.02719157701991302
0.027862973983367664
0.03121995880064088
0.0426337071793698
0.05035477225909819
0.04800488288700694
0.03927672236209659
0.015106431677729458
-0.009063859006637675
-0.022156099794003202
-0.029877164873731592
-0.03054856183718624
-0.029205767910276948
-0.02853437094682231
-0.025177386129549097
-0.0157778286411841
-0.004364080262455177
-0.0016784924086366065
0.007049668116273747
0.01846341649500267
0.025177386129549097
0.027862973983367664
0.029205767910276948
0.033234149691004806
0.043976501106279084
0.0520332646677348
0.050019073777370866
0.04095521477073319
0.0157778286411841
-0.008392462043183033
-0.022491798275730522
-0.02853437094682231
-0.030212863355458915
-0.029205767910276948
-0.029877164873731592
-0.02584878309300374
-0.016449225604638743
-0.004364080262455177
-0.0010070954451819635
0.007721065079728388
0.01846341649500267
0.025177386129549097
0.02652018005645838
0.02853437094682231
0.033234149691004806
0.04531929503318838
0.05270466163118945
0.050690470740825506
0.03994811932555123
0.0157778286411841
-0.009735255970092317
-0.023163195239185166
-0.029877164873731592
-0.03121995880064088
-0.03054856183718624
-0.029877164873731592
-0.02719157701991302
-0.017120622568093383
-0.005706874189364461
-0.0023498893720912484
0.007385366598001068
0.01846341649500267
0.024505989166094453
0.027862973983367664
0.027862973983367664
0.032898451209277486
0.044647898069733724
0.05337605859464408
0.050690470740825506
0.03994811932555123
0.014435034714274816
-0.011078049897001601
-0.023163195239185166
-0.029877164873731592
-0.03121995880064088
-0.029877164873731592
-0.029877164873731592
-0.02584878309300374
-0.016449225604638743
-0.004364080262455177
-0.0010070954451819635
0.009063859006637675
0.019806210421911954
0.025177386129549097
0.02853437094682231
0.029205767910276948
0.03390554665445944
0.043640802624551764
0.050019073777370866
0.04800488288700694
0.0379339284351873
0.010406652933546959
-0.012420843823910887
-0.023834592202639806
-0.029877164873731592
-0.03121995880064088
-0.029877164873731592
-0.02853437094682231
-0.023163195239185166
-0.012085145342183566
-0.0010070954451819635
0.0010070954451819635
0.010406652933546959
0.020477607385366595
0.023834592202639806
0.02652018005645838
0.027862973983367664
0.0315556572823682
0.04129091325246051
0.04800488288700694
0.04632639047837033
0.033234149691004806
0.0050354772259098195
-0.015106431677729458
-0.024505989166094453
-0.029877164873731592
-0.029877164873731592
-0.02853437094682231
-0.02584878309300374
-0.020477607385366595
-0.009063859006637675
0.0023498893720912484
0.006042572671091783
0.013092240787365528
0.021149004348821242
0.025513084611276417
0.02719157701991302
0.027862973983367664
0.03121995880064088
0.03961242084382391
0.04531929503318838
0.0426337071793698
0.02652018005645838
0.0003356984817273213
-0.017120622568093383
-0.02652018005645838
-0.029877164873731592
-0.029877164873731592
-0.02719157701991302
-0.025177386129549097
-0.01913481345845731
-0.007049668116273747
0.0050354772259098195
0.010406652933546959
0.017120622568093383
0.023834592202639806
0.02719157701991302
0.027862973983367664
0.02853437094682231
0.03189135576409552
0.03927672236209659
0.0426337071793698
0.03994811932555123
0.021149004348821242
-0.0023498893720912484
-0.017456321049820707
-0.025177386129549097
-0.02752727550164034
-0.02719157701991302
-0.025177386129549097
-0.022491798275730522
-0.016449225604638743
-0.005706874189364461
0.005706874189364461
0.01376363775082017
0.019470511940184634
0.025177386129549097
0.027862973983367664
0.027862973983367664
0.027862973983367664
0.029205767910276948
0.03659113450827802
0.03994811932555123
0.035248340581368734
0.017792019531548024
-0.0030212863355458916
-0.016449225604638743
-0.023163195239185166
-0.02584878309300374
-0.024505989166094453
-0.021820401312275882
-0.019806210421911954
-0.014435034714274816
-0.005706874189364461
0.004364080262455177
0.014435034714274816
0.020477607385366595
0.024505989166094453
0.02652018005645838
0.02652018005645838
0.02652018005645838
0.027862973983367664
0.033234149691004806
0.03659113450827802
0.029877164873731592
0.012420843823910887
-0.004364080262455177
-0.0157778286411841
-0.021820401312275882
-0.023163195239185166
-0.021820401312275882
-0.020477607385366595
-0.01846341649500267
-0.01376363775082017
-0.006042572671091783
0.0023498893720912484
0.013092240787365528
0.023834592202639806
0.02853437094682231
0.030212863355458915
0.029205767910276948
0.02719157701991302
0.02853437094682231
0.03256275272755016
0.027862973983367664
0.014770733196002136
0.0023498893720912484
-0.010070954451819639
-0.01913481345845731
-0.022491798275730522
-0.021820401312275882
-0.019806210421911954
-0.017792019531548024
-0.016449225604638743
-0.011749446860456245
-0.005706874189364461
0.0023498893720912484
0.011749446860456245
0.022491798275730522
0.03054856183718624
0.03256275272755016
0.03189135576409552
0.03054856183718624
0.029205767910276948
0.02853437094682231
0.021820401312275882
0.013092240787365528
0.0030212863355458916
-0.007049668116273747
-0.01376363775082017
-0.016449225604638743
-0.016449225604638743
-0.014099336232547494
-0.011749446860456245
-0.011413748378728923
-0.008728160524910353
-0.003692683299000534
0.0023498893720912484
0.010406652933546959
0.019806210421911954
0.02584878309300374
0.027862973983367664
0.027862973983367664
0.02652018005645838
0.026184481574731057
0.025177386129549097
0.021149004348821242
0.01376363775082017
0.0050354772259098195
-0.0030212863355458916
-0.007721065079728388
-0.010406652933546959
-0.011078049897001601
-0.009735255970092317
-0.008392462043183033
-0.007721065079728388
-0.005706874189364461
-0.0016784924086366065
0.0030212863355458916
0.010070954451819639
0.01846341649500267
0.022491798275730522
0.024841687647821773
0.023834592202639806
0.022491798275730522
0.022491798275730522
0.022491798275730522
0.01913481345845731
0.012420843823910887
0.0050354772259098195
-0.0016784924086366065
-0.005706874189364461
-0.011078049897001601
0.4844129091325245
2.5657434958419163
4.077729457541771
4.0401312275883114
1.0228732738231479
-2.2226596475165943
-2.068909742885481
-1.7271686884870683
-1.6120241092545968
-1.40859082932784
-1.2383916990920882
-1.08397039749752
-0.938277256427863
-0.8023193713282979
-0.677103837644007
-0.5656519417105363
-0.46762798504615855
-0.3790035858701457
-0.2997787441824979
-0.22693217364766916
-0.1594567788204776
-0.09903105210955977
-0.044647898069733724
0.0023498893720912484
0.043976501106279084
0.0788891432059205
0.10977340352483406
0.13931486991683834
0.16549935149156939
0.18731975280384525
0.2024261844815747
0.2124971389333944
0.21719691767757685
0.21853971160448613
0.2195468070496681
0.21719691767757685
0.20981155107957578
0.19839780270084686
0.18564126039520865
0.17154192416266117
0.1601281757839322
0.1500572213321126
0.1406576638437476
0.1326009002822919
0.12454413672083621
0.11581597619592585
0.10775921263447012
0.10238803692683297
0.09768825818265049
0.09600976577401388
0.0946669718471046
0.09030289158464942
0.08426031891355765
0.0772106507972839
0.06814679179064621
0.061432822156099784
0.055390249485008015
0.04531929503318838
0.03390554665445944
0.021820401312275882
0.010406652933546959
0.003692683299000534
-0.0016784924086366065
-0.0050354772259098195
-0.006378271152819104
-0.007721065079728388
-0.009063859006637675
-0.009063859006637675
-0.007049668116273747
-0.0030212863355458916
0.0010070954451819635
0.006713969634546426
0.010406652933546959
0.011749446860456245
0.010406652933546959
0.009063859006637675
0.008728160524910353
0.007721065079728388
0.003692683299000534
-0.0016784924086366065
-0.007049668116273747
-0.01376363775082017
-0.016784924086366067
-0.01812771801327535
-0.017792019531548024
-0.016449225604638743
-0.01376363775082017
-0.01376363775082017
-0.011078049897001601
-0.007385366598001068
-0.003692683299000534
0.0023498893720912484
0.009063859006637675
0.012420843823910887
0.014435034714274816
0.015106431677729458
0.014435034714274816
0.013092240787365528
0.013092240787365528
0.011078049897001601
0.006378271152819104
0.0016784924086366065
-0.0030212863355458916
-0.006378271152819104
-0.007049668116273747
-0.007049668116273747
-0.006042572671091783
-0.0050354772259098195
-0.004364080262455177
-0.0030212863355458916
-0.0003356984817273213
0.003356984817273213
0.007721065079728388
0.013092240787365528
0.016449225604638743
0.017120622568093383
0.017120622568093383
0.016449225604638743
0.016784924086366067
0.0157778286411841
0.013092240787365528
0.009735255970092317
0.004699778744182497
0.0016784924086366065
-0.0010070954451819635
-0.0016784924086366065
-0.0030212863355458916
-0.0023498893720912484
-0.0006713969634546426
-0.0003356984817273213
0.0010070954451819635
0.0023498893720912484
0.0050354772259098195
0.008392462043183033
0.013092240787365528
0.014435034714274816
0.0157778286411841
0.0157778286411841
0.0157778286411841
0.0157778286411841
0.0157778286411841
0.01376363775082017
0.011413748378728923
0.007385366598001068
0.004364080262455177
0.0016784924086366065
0.0010070954451819635
0.0010070954451819635
0.0010070954451819635
0.0010070954451819635
0.0010070954451819635
0.0016784924086366065
0.0023498893720912484
0.004699778744182497
0.006378271152819104
0.009735255970092317
0.011749446860456245
0.011413748378728923
0.011749446860456245
0.011749446860456245
0.011749446860456245
0.012756542305638208
0.011078049897001601
0.009063859006637675
0.006378271152819104
0.003692683299000534
0.0010070954451819635
0.0003356984817273213
0.0003356984817273213
-0.0006713969634546426
-0.0003356984817273213
-0.0003356984817273213
0.0003356984817273213
0.0010070954451819635
0.0023498893720912484
0.0050354772259098195
0.007721065079728388
0.008728160524910353
0.010406652933546959
0.010406652933546959
0.010406652933546959
0.010406652933546959
0.010406652933546959
0.010070954451819639
0.007721065079728388
0.006042572671091783
0.003356984817273213
0.0016784924086366065
0.0010070954451819635
0.0010070954451819635
0.0010070954451819635
0.0010070954451819635
0.0003356984817273213
0.0003356984817273213
0.0010070954451819635
0.0023498893720912484
0.004364080262455177
0.007721065079728388
0.007721065079728388
0.009063859006637675
0.010406652933546959
0.010406652933546959
0.011078049897001601
0.011749446860456245
0.011078049897001601
0.009735255970092317
0.007721065079728388
0.0050354772259098195
0.0030212863355458916
0.0023498893720912484
0.0023498893720912484
0.0023498893720912484
0.0023498893720912484
0.002014190890363927
0.0023498893720912484
0.0023498893720912484
0.003692683299000534
0.004699778744182497
0.007721065079728388
0.009063859006637675
0.009063859006637675
0.010406652933546959
0.010406652933546959
0.011749446860456245
0.011749446860456245
0.011078049897001601
0.010406652933546959
0.007721065079728388
0.006378271152819104
0.004364080262455177
0.003356984817273213
0.0030212863355458916
0.003692683299000534
0.0030212863355458916
0.0023498893720912484
0.0023498893720912484
0.0030212863355458916
0.003356984817273213
0.004699778744182497
0.007049668116273747
0.007721065079728388
0.009063859006637675
0.009063859006637675
0.009735255970092317
0.010406652933546959
0.010406652933546959
0.010406652933546959
0.009063859006637675
0.007721065079728388
0.006378271152819104
0.004364080262455177
0.0030212863355458916
0.0030212863355458916
0.003356984817273213
0.0023498893720912484
0.0030212863355458916
0.003692683299000534
0.0023498893720912484
0.003692683299000534
0.0050354772259098195
0.007721065079728388
0.009063859006637675
0.009735255970092317
0.010406652933546959
0.010406652933546959
0.010406652933546959
0.011749446860456245
0.010406652933546959
0.009735255970092317
0.009063859006637675
0.007049668116273747
0.004364080262455177
0.004028381780727854
0.004364080262455177
0.003692683299000534
0.003692683299000534
0.0030212863355458916
0.0030212863355458916
0.003692683299000534
0.003692683299000534
0.004699778744182497
0.006378271152819104
0.008392462043183033
0.009063859006637675
0.009735255970092317
0.009063859006637675
0.010406652933546959
0.011078049897001601
0.010406652933546959
0.010406652933546959
0.008392462043183033
0.006378271152819104
0.0050354772259098195
0.003692683299000534
0.003692683299000534
0.004028381780727854
0.003692683299000534
0.0030212863355458916
0.0023498893720912484
0.0023498893720912484
0.0030212863355458916
0.004364080262455177
0.006378271152819104
0.008728160524910353
0.009063859006637675
0.009063859006637675
0.009063859006637675
0.010406652933546959
0.011078049897001601
0.011078049897001601
0.009063859006637675
0.008728160524910353
0.007049668116273747
0.0053711757076371405
0.004364080262455177
0.004364080262455177
0.003692683299000534
0.003692683299000534
0.003356984817273213
0.0030212863355458916
0.003692683299000534
0.003692683299000534
0.004364080262455177
0.007385366598001068
0.007721065079728388
0.009063859006637675
0.009063859006637675
0.009735255970092317
0.010406652933546959
0.011078049897001601
0.011078049897001601
0.010406652933546959
0.008392462043183033
0.006042572671091783
0.0050354772259098195
0.004699778744182497
0.003692683299000534
0.003692683299000534
0.0030212863355458916
0.003692683299000534
0.0023498893720912484
0.003356984817273213
0.003692683299000534
0.0050354772259098195
0.007385366598001068
0.009063859006637675
0.009735255970092317
0.009735255970092317
0.009063859006637675
0.010406652933546959
0.011413748378728923
0.011078049897001601
0.010406652933546959
0.007721065079728388
0.005706874189364461
0.0050354772259098195
0.003692683299000534
0.003692683299000534
0.004364080262455177
0.003692683299000534
0.0023498893720912484
0.0016784924086366065
0.0023498893720912484
0.003692683299000534
0.0050354772259098195
0.007049668116273747
0.008392462043183033
0.009063859006637675
0.009735255970092317
0.010406652933546959
0.011078049897001601
0.011749446860456245
0.011413748378728923
0.009735255970092317
0.007721065079728388
0.006378271152819104
0.0050354772259098195
0.003692683299000534
0.004699778744182497
0.004364080262455177
0.003692683299000534
0.003692683299000534
0.0023498893720912484
0.0023498893720912484
0.003692683299000534
0.0050354772259098195
0.007385366598001068
0.009063859006637675
0.010070954451819639
0.010406652933546959
0.009735255970092317
0.010406652933546959
0.011749446860456245
0.010406652933546959
0.009063859006637675
0.007049668116273747
0.0050354772259098195
0.003692683299000534
0.0023498893720912484
0.0023498893720912484
0.0023498893720912484
0.0023498893720912484
0.0016784924086366065
0.0016784924086366065
0.0023498893720912484
0.003692683299000534
0.005706874189364461
0.007721065079728388
0.009063859006637675
0.010406652933546959
0.010406652933546959
0.010406652933546959
0.011749446860456245
0.011749446860456245
0.011413748378728923
0.010406652933546959
0.007721065079728388
0.005706874189364461
0.003692683299000534
0.0030212863355458916
0.0023498893720912484
0.0030212863355458916
0.0030212863355458916
0.0023498893720912484
0.0023498893720912484
0.0023498893720912484
0.004364080262455177
0.006378271152819104
0.008392462043183033
0.009063859006637675
0.011078049897001601
0.010406652933546959
0.010406652933546959
0.010406652933546959
0.011749446860456245
0.011078049897001601
0.009735255970092317
0.006378271152819104
0.004364080262455177
0.003356984817273213
0.0023498893720912484
0.0023498893720912484
0.002014190890363927
0.0023498893720912484
0.0010070954451819635
0.0010070954451819635
0.0016784924086366065
0.003692683299000534
0.006378271152819104
0.007721065079728388
0.009735255970092317
0.009735255970092317
0.011078049897001601
0.011413748378728923
0.012085145342183566
0.013092240787365528
0.011749446860456245
0.009735255970092317
0.007049668116273747
0.0050354772259098195
0.0023498893720912484
0.0023498893720912484
0.0010070954451819635
0.0016784924086366065
0.0016784924086366065
0.0013427939269092851
0.0010070954451819635
0.0023498893720912484
0.0030212863355458916
0.0050354772259098195
0.008392462043183033
0.010406652933546959
0.011749446860456245
0.012420843823910887
0.011749446860456245
0.013092240787365528
0.014435034714274816
0.013092240787365528
0.010406652933546959
0.007721065079728388
0.0050354772259098195
0.0030212863355458916
0.0023498893720912484
0.002014190890363927
0.0023498893720912484
0.0010070954451819635
0.002014190890363927
0.0023498893720912484
0.0023498893720912484
0.003356984817273213
0.005706874189364461
0.009063859006637675
0.011413748378728923
0.011749446860456245
0.012420843823910887
0.013092240787365528
0.012756542305638208
0.01376363775082017
0.013092240787365528
0.010406652933546959
0.007721065079728388
0.0050354772259098195
0.0023498893720912484
0.0016784924086366065
0.0016784924086366065
0.0010070954451819635
0.0013427939269092851
0.0010070954451819635
0.0003356984817273213
0.0010070954451819635
0.0023498893720912484
0.0050354772259098195
0.008728160524910353
0.010406652933546959
0.011078049897001601
0.011749446860456245
0.012085145342183566
0.013092240787365528
0.013092240787365528
0.013092240787365528
0.010406652933546959
0.008392462043183033
0.0050354772259098195
0.003692683299000534
0.0023498893720912484
0.0023498893720912484
0.0016784924086366065
0.0010070954451819635
0.0006713969634546426
0.0016784924086366065
0.0010070954451819635
0.0023498893720912484
0.0050354772259098195
0.009063859006637675
0.010406652933546959
0.011078049897001601
0.010406652933546959
0.011749446860456245
0.012420843823910887
0.013092240787365528
0.011749446860456245
0.009735255970092317
0.007721065079728388
0.004364080262455177
0.0030212863355458916
0.0023498893720912484
0.0023498893720912484
0.0023498893720912484
0.0016784924086366065
0.0016784924086366065
0.002014190890363927
0.0023498893720912484
0.0023498893720912484
0.0050354772259098195
0.008728160524910353
0.010406652933546959
0.011078049897001601
0.011078049897001601
0.011749446860456245
0.012420843823910887
0.013092240787365528
0.011749446860456245
0.009399557488364994
0.007385366598001068
0.003692683299000534
0.0023498893720912484
0.0023498893720912484
0.0023498893720912484
0.0023498893720912484
0.0016784924086366065
0.0016784924086366065
0.0023498893720912484
0.0030212863355458916
0.004364080262455177
0.007049668116273747
0.010406652933546959
0.010406652933546959
0.011078049897001601
0.011413748378728923
0.011749446860456245
0.012756542305638208
0.012756542305638208
0.011749446860456245
0.010406652933546959
0.007721065079728388
0.0050354772259098195
0.0050354772259098195
0.003356984817273213
0.0023498893720912484
0.003692683299000534
0.0023498893720912484
0.0016784924086366065
0.0023498893720912484
0.0030212863355458916
0.004364080262455177
0.006378271152819104
0.008392462043183033
0.009735255970092317
0.010406652933546959
0.009735255970092317
0.010406652933546959
0.011749446860456245
0.011078049897001601
0.010070954451819639
0.008392462043183033
0.007049668116273747
0.0050354772259098195
0.003692683299000534
0.0030212863355458916
0.0023498893720912484
0.0030212863355458916
0.0023498893720912484
0.0023498893720912484
0.0023498893720912484
0.003692683299000534
0.003692683299000534
0.0050354772259098195
0.007721065079728388
0.009063859006637675
0.010406652933546959
0.010406652933546959
0.010406652933546959
0.010406652933546959
0.011749446860456245
0.010406652933546959
0.009063859006637675
0.007721065079728388
0.006378271152819104
0.004699778744182497
0.003692683299000534
0.004364080262455177
0.003356984817273213
0.003692683299000534
0.0023498893720912484
0.0023498893720912484
0.0023498893720912484
0.003692683299000534
0.0050354772259098195
0.007049668116273747
0.009063859006637675
0.009063859006637675
0.009735255970092317
0.009063859006637675
0.010406652933546959
0.010406652933546959
0.009735255970092317
0.008392462043183033
0.006378271152819104
0.0050354772259098195
0.004028381780727854
0.003692683299000534
0.003692683299000534
0.003356984817273213
0.003692683299000534
0.0030212863355458916
0.0023498893720912484
0.003692683299000534
0.004364080262455177
0.005706874189364461
0.007049668116273747
0.008392462043183033
0.009063859006637675
0.009735255970092317
0.009735255970092317
0.010406652933546959
0.011749446860456245
0.010070954451819639
0.009063859006637675
0.007721065079728388
0.005706874189364461
0.004364080262455177
0.003692683299000534
0.003692683299000534
0.004028381780727854
0.003692683299000534
0.0030212863355458916
0.0023498893720912484
0.003692683299000534
0.003692683299000534
0.0050354772259098195
0.007721065079728388
0.009063859006637675
0.009063859006637675
0.009063859006637675
0.009735255970092317
0.010406652933546959
0.011749446860456245
0.010406652933546959
0.009735255970092317
0.007721065079728388
0.006378271152819104
0.0050354772259098195
0.004364080262455177
0.003692683299000534
0.003692683299000534
0.004699778744182497
0.003356984817273213
0.003356984817273213
0.003692683299000534
0.004364080262455177
0.0050354772259098195
0.007049668116273747
0.008392462043183033
0.009063859006637675
0.008728160524910353
0.009063859006637675
0.009735255970092317
0.010406652933546959
0.010406652933546959
0.009063859006637675
0.007721065079728388
0.006378271152819104
0.005706874189364461
0.004699778744182497
0.004028381780727854
0.004028381780727854
0.003692683299000534
0.003692683299000534
0.003692683299000534
0.003692683299000534
0.003692683299000534
0.0050354772259098195
0.007721065079728388
0.007721065079728388
0.009063859006637675
0.009399557488364994
0.009063859006637675
0.010406652933546959
0.011749446860456245
0.011078049897001601
0.009735255970092317
0.007721065079728388
0.006378271152819104
0.0050354772259098195
0.004364080262455177
0.004364080262455177
0.003692683299000534
0.003692683299000534
0.0023498893720912484
0.003356984817273213
0.0030212863355458916
0.004364080262455177
0.005706874189364461
0.007049668116273747
0.007721065079728388
0.009063859006637675
0.009735255970092317
0.009735255970092317
0.010406652933546959
0.011749446860456245
0.011749446860456245
0.009063859006637675
0.007721065079728388
0.006378271152819104
0.0050354772259098195
0.004028381780727854
0.0050354772259098195
0.004364080262455177
0.004364080262455177
0.003692683299000534
0.003692683299000534
0.003692683299000534
0.0050354772259098195
0.006378271152819104
0.007721065079728388
0.009063859006637675
0.010406652933546959
0.010406652933546959
0.009063859006637675
0.010406652933546959
0.011078049897001601
0.010406652933546959
0.009735255970092317
0.007721065079728388
0.006713969634546426
0.005706874189364461
0.0050354772259098195
0.004364080262455177
0.004364080262455177
0.003692683299000534
0.003692683299000534
0.003692683299000534
0.003692683299000534
0.004364080262455177
0.006378271152819104
0.007721065079728388
0.009063859006637675
0.009735255970092317
0.009063859006637675
0.009735255970092317
0.010406652933546959
0.011078049897001601
0.011078049897001601
0.009735255970092317
0.007721065079728388
0.006378271152819104
0.0050354772259098195
0.004699778744182497
0.003692683299000534
0.003692683299000534
0.003692683299000534
0.003692683299000534
0.0030212863355458916
0.003356984817273213
0.004699778744182497
0.006378271152819104
0.008392462043183033
0.009063859006637675
0.010406652933546959
0.010406652933546959
0.010406652933546959
0.011749446860456245
0.011749446860456245
0.011078049897001601
0.009735255970092317
0.007385366598001068
0.0050354772259098195
0.0050354772259098195
0.0050354772259098195
0.004364080262455177
0.004364080262455177
0.003692683299000534
0.003692683299000534
0.0023498893720912484
0.003356984817273213
0.004364080262455177
0.006378271152819104
0.008392462043183033
0.009735255970092317
0.009735255970092317
0.010406652933546959
0.010406652933546959
0.010406652933546959
0.011749446860456245
0.010406652933546959
0.009063859006637675
0.006378271152819104
0.0050354772259098195
0.0050354772259098195
0.004364080262455177
0.003692683299000534
0.003692683299000534
0.003692683299000534
0.0030212863355458916
0.003692683299000534
0.003692683299000534
0.004364080262455177
0.006378271152819104
0.008392462043183033
0.010406652933546959
0.010406652933546959
0.010406652933546959
0.010406652933546959
0.011413748378728923
0.011749446860456245
0.011078049897001601
0.009735255970092317
0.007385366598001068
0.005706874189364461
0.004364080262455177
0.003692683299000534
0.003356984817273213
0.003692683299000534
0.0030212863355458916
0.003692683299000534
0.003356984817273213
0.0030212863355458916
0.004364080262455177
0.007049668116273747
0.009063859006637675
0.009063859006637675
0.009735255970092317
0.010070954451819639
0.010406652933546959
0.011749446860456245
0.012420843823910887
0.010406652933546959
0.009063859006637675
0.007385366598001068
0.004364080262455177
0.003356984817273213
0.0023498893720912484
0.0030212863355458916
0.003356984817273213
0.003692683299000534
0.0030212863355458916
0.0030212863355458916
0.004364080262455177
0.0050354772259098195
0.007049668116273747
0.010070954451819639
0.011078049897001601
0.011749446860456245
0.011749446860456245
0.011078049897001601
0.012420843823910887
0.012420843823910887
0.011078049897001601
0.009735255970092317
0.007721065079728388
0.0050354772259098195
0.003692683299000534
0.003692683299000534
0.003692683299000534
0.0030212863355458916
0.0023498893720912484
0.0023498893720912484
0.0023498893720912484
0.0023498893720912484
0.003692683299000534
0.007049668116273747
0.009063859006637675
0.010406652933546959
0.010406652933546959
0.010406652933546959
0.011749446860456245
0.012420843823910887
0.011749446860456245
0.010070954451819639
0.009063859006637675
0.006378271152819104
0.004699778744182497
0.003692683299000534
0.0023498893720912484
0.0023498893720912484
0.0023498893720912484
0.0023498893720912484
0.0010070954451819635
0.0016784924086366065
0.003692683299000534
0.004364080262455177
0.006378271152819104
0.009063859006637675
0.011749446860456245
0.011749446860456245
0.011749446860456245
0.011749446860456245
0.013092240787365528
0.013092240787365528
0.012420843823910887
0.009735255970092317
0.006378271152819104
0.004364080262455177
0.0023498893720912484
0.0023498893720912484
0.0023498893720912484
0.0030212863355458916
0.002014190890363927
0.0016784924086366065
0.002014190890363927
0.0023498893720912484
0.0050354772259098195
0.008392462043183033
0.010406652933546959
0.011749446860456245
0.011749446860456245
0.012085145342183566
0.012420843823910887
0.013092240787365528
0.01376363775082017
0.011749446860456245
0.009735255970092317
0.007049668116273747
0.0050354772259098195
0.003356984817273213
0.0023498893720912484
0.003356984817273213
0.0023498893720912484
0.0023498893720912484
0.0023498893720912484
0.0023498893720912484
0.0023498893720912484
0.0050354772259098195
0.007721065079728388
0.010406652933546959
0.011078049897001601
0.011749446860456245
0.011749446860456245
0.011078049897001601
0.013092240787365528
0.013092240787365528
0.011749446860456245
0.009063859006637675
0.006378271152819104
0.004364080262455177
0.0023498893720912484
0.0023498893720912484
0.0023498893720912484
0.0023498893720912484
0.0010070954451819635
0.0010070954451819635
0.0016784924086366065
0.0023498893720912484
0.003692683299000534
0.006378271152819104
0.009735255970092317
0.011078049897001601
0.012085145342183566
0.011749446860456245
0.011749446860456245
0.013092240787365528
0.013092240787365528
0.010406652933546959
0.009735255970092317
0.007049668116273747
0.004364080262455177
0.0023498893720912484
0.0016784924086366065
0.0023498893720912484
0.0023498893720912484
0.0010070954451819635
0.0010070954451819635
0.0016784924086366065
0.003692683299000534
0.0050354772259098195
0.007049668116273747
0.009063859006637675
0.010406652933546959
0.011749446860456245
0.011078049897001601
0.011749446860456245
0.013092240787365528
0.013092240787365528
0.011749446860456245
0.009735255970092317
0.006378271152819104
0.004364080262455177
0.0030212863355458916
0.0023498893720912484
0.0023498893720912484
0.0023498893720912484
0.0023498893720912484
0.0010070954451819635
0.0016784924086366065
0.0023498893720912484
0.003692683299000534
0.006378271152819104
0.009063859006637675
0.010406652933546959
0.010406652933546959
0.011078049897001601
0.011749446860456245
0.013092240787365528
0.013092240787365528
0.011749446860456245
0.009735255970092317
0.006378271152819104
0.0050354772259098195
0.003692683299000534
0.0023498893720912484
0.0023498893720912484
0.003356984817273213
0.0023498893720912484
0.002014190890363927
0.0023498893720912484
0.003692683299000534
0.004364080262455177
0.006713969634546426
0.009063859006637675
0.010406652933546959
0.010406652933546959
0.010406652933546959
0.011078049897001601
0.011749446860456245
0.012420843823910887
0.010406652933546959
0.009735255970092317
0.006378271152819104
0.004364080262455177
0.003692683299000534
0.0023498893720912484
0.003356984817273213
0.0023498893720912484
0.0023498893720912484
0.0023498893720912484
0.0023498893720912484
0.003692683299000534
0.0050354772259098195
0.007721065079728388
0.009063859006637675
0.010070954451819639
0.011078049897001601
0.011413748378728923
0.011749446860456245
0.011749446860456245
0.012420843823910887
0.011749446860456245
0.009063859006637675
0.007721065079728388
0.0050354772259098195
0.004364080262455177
0.003692683299000534
0.003692683299000534
0.003692683299000534
0.0030212863355458916
0.0023498893720912484
0.0023498893720912484
0.003692683299000534
0.0050354772259098195
0.007049668116273747
0.009063859006637675
0.009735255970092317
0.011078049897001601
0.011078049897001601
0.011749446860456245
0.012420843823910887
0.012420843823910887
0.011078049897001601
0.009063859006637675
0.007049668116273747
0.0050354772259098195
0.004028381780727854
0.003692683299000534
0.003692683299000534
0.003356984817273213
0.003692683299000534
0.0023498893720912484
0.0023498893720912484
0.003692683299000534
0.0050354772259098195
0.006378271152819104
0.008392462043183033
0.010406652933546959
0.010406652933546959
0.010406652933546959
0.011078049897001601
0.011413748378728923
0.011749446860456245
0.010406652933546959
0.009063859006637675
0.006378271152819104
0.0050354772259098195
0.004364080262455177
0.003692683299000534
0.0030212863355458916
0.0030212863355458916
0.0030212863355458916
0.0023498893720912484
0.0030212863355458916
0.0030212863355458916
0.0050354772259098195
0.006378271152819104
0.007721065079728388
0.009063859006637675
0.010406652933546959
0.010406652933546959
0.010406652933546959
0.011749446860456245
0.011749446860456245
0.010406652933546959
0.009063859006637675
0.006378271152819104
0.0050354772259098195
0.003692683299000534
0.003692683299000534
0.003356984817273213
0.0023498893720912484
0.0023498893720912484
0.0023498893720912484
0.0023498893720912484
0.0023498893720912484
0.003692683299000534
0.007049668116273747
0.007721065079728388
0.009063859006637675
0.009063859006637675
0.009735255970092317
0.010406652933546959
0.011078049897001601
0.011078049897001601
0.010406652933546959
0.009063859006637675
0.007049668116273747
0.004699778744182497
0.0030212863355458916
0.003692683299000534
0.0023498893720912484
0.003356984817273213
0.0030212863355458916
0.0030212863355458916
0.0030212863355458916
0.003692683299000534
0.0050354772259098195
0.007049668116273747
0.009063859006637675
0.010070954451819639
0.009735255970092317
0.010406652933546959
0.011078049897001601
0.011749446860456245
0.011749446860456245
0.010406652933546959
0.009735255970092317
0.007721065079728388
0.006042572671091783
0.0050354772259098195
0.004364080262455177
0.003692683299000534
0.003692683299000534
0.003692683299000534
0.003692683299000534
0.003692683299000534
0.003692683299000534
0.0050354772259098195
0.007721065079728388
0.009063859006637675
0.009735255970092317
0.010406652933546959
0.010406652933546959
0.011078049897001601
0.011413748378728923
0.011413748378728923
0.010406652933546959
0.008728160524910353
0.006378271152819104
0.0050354772259098195
0.003692683299000534
0.003692683299000534
0.0030212863355458916
0.0030212863355458916
0.0030212863355458916
0.0030212863355458916
0.003356984817273213
0.003692683299000534
0.0050354772259098195
0.007721065079728388
0.009063859006637675
0.009735255970092317
0.010406652933546959
0.011078049897001601
0.011078049897001601
0.011749446860456245
0.011749446860456245
0.010406652933546959
0.007721065079728388
0.006378271152819104
0.004364080262455177
0.003692683299000534
0.003692683299000534
0.003692683299000534
0.003692683299000534
0.003356984817273213
0.003356984817273213
0.003692683299000534
0.004699778744182497
0.0050354772259098195
0.007721065079728388
0.009735255970092317
0.010406652933546959
0.010406652933546959
0.010406652933546959
0.010406652933546959
0.011749446860456245
0.010406652933546959
0.009735255970092317
0.007721065079728388
0.006042572671091783
0.004364080262455177
0.0030212863355458916
0.0023498893720912484
0.0023498893720912484
0.0023498893720912484
0.0023498893720912484
0.0023498893720912484
0.003692683299000534
0.0050354772259098195
0.007049668116273747
0.007721065079728388
0.010406652933546959
0.011078049897001601
0.011749446860456245
0.010406652933546959
0.011749446860456245
0.012420843823910887
0.011078049897001601
0.009735255970092317
0.007721065079728388
0.005706874189364461
0.003692683299000534
0.0030212863355458916
0.003692683299000534
0.003356984817273213
0.0023498893720912484
0.0023498893720912484
0.0023498893720912484
0.003692683299000534
0.0050354772259098195
0.006713969634546426
0.009063859006637675
0.010406652933546959
0.011749446860456245
0.011078049897001601
0.011749446860456245
0.011413748378728923
0.011749446860456245
0.010406652933546959
0.009735255970092317
0.007721065079728388
0.0050354772259098195
0.003692683299000534
0.0023498893720912484
0.0023498893720912484
0.0023498893720912484
0.0023498893720912484
0.0023498893720912484
0.0023498893720912484
0.003692683299000534
0.004364080262455177
0.006378271152819104
0.009063859006637675
0.010406652933546959
0.011078049897001601
0.010406652933546959
0.011078049897001601
0.011749446860456245
0.011078049897001601
0.010406652933546959
0.009063859006637675
0.007721065079728388
0.0050354772259098195
0.003356984817273213
0.002014190890363927
0.0023498893720912484
0.0023498893720912484
0.0023498893720912484
0.0023498893720912484
0.0023498893720912484
0.003692683299000534
0.0050354772259098195
0.006378271152819104
0.009063859006637675
0.011078049897001601
0.011413748378728923
0.011413748378728923
0.011749446860456245
0.011749446860456245
0.011749446860456245
0.011078049897001601
0.009063859006637675
0.007385366598001068
0.0050354772259098195
0.0023498893720912484
0.0016784924086366065
0.0016784924086366065
0.0023498893720912484
0.0023498893720912484
0.002014190890363927
0.0023498893720912484
0.003692683299000534
0.0050354772259098195
0.007049668116273747
0.009063859006637675
0.011078049897001601
0.011749446860456245
0.012085145342183566
0.011749446860456245
0.012085145342183566
0.012420843823910887
0.011749446860456245
0.009063859006637675
0.007385366598001068
0.0050354772259098195
0.003692683299000534
0.0023498893720912484
0.0023498893720912484
0.0023498893720912484
0.0023498893720912484
0.0023498893720912484
0.0023498893720912484
0.003692683299000534
0.004364080262455177
0.007049668116273747
0.009063859006637675
0.010406652933546959
0.010406652933546959
0.011749446860456245
0.011413748378728923
0.011749446860456245
0.011413748378728923
0.010406652933546959
0.008392462043183033
0.007721065079728388
0.0050354772259098195
0.003692683299000534
0.0023498893720912484
0.0023498893720912484
0.0016784924086366065
0.0023498893720912484
0.0023498893720912484
0.0030212863355458916
0.003692683299000534
0.0050354772259098195
0.007049668116273747
0.007721065079728388
0.010406652933546959
0.011749446860456245
0.011749446860456245
0.011749446860456245
0.011749446860456245
0.011749446860456245
0.011078049897001601
0.009063859006637675
0.006378271152819104
0.004364080262455177
0.0023498893720912484
0.002014190890363927
0.0010070954451819635
0.002014190890363927
0.0023498893720912484
0.0023498893720912484
0.0023498893720912484
0.003692683299000534
0.0050354772259098195
0.007049668116273747
0.009063859006637675
0.011078049897001601
0.011749446860456245
0.011749446860456245
0.011413748378728923
0.011749446860456245
0.012420843823910887
0.011749446860456245
0.009063859006637675
0.006713969634546426
0.0050354772259098195
0.0030212863355458916
0.0023498893720912484
0.0010070954451819635
0.0016784924086366065
0.0023498893720912484
0.0023498893720912484
0.0023498893720912484
0.0023498893720912484
0.0050354772259098195
0.006378271152819104
0.009063859006637675
0.011078049897001601
0.011749446860456245
0.012420843823910887
0.011749446860456245
0.012420843823910887
0.012420843823910887
0.011749446860456245
0.009735255970092317
0.007721065079728388
0.004699778744182497
0.003692683299000534
0.0023498893720912484
0.0023498893720912484
0.0023498893720912484
0.0023498893720912484
0.0023498893720912484
0.0023498893720912484
0.003692683299000534
0.0050354772259098195
0.006378271152819104
0.009063859006637675
0.011078049897001601
0.011078049897001601
0.011749446860456245
0.011749446860456245
0.011749446860456245
0.011749446860456245
0.011413748378728923
0.010070954451819639
0.007721065079728388
0.0050354772259098195
0.0030212863355458916
0.0023498893720912484
0.0023498893720912484
0.0023498893720912484
0.0023498893720912484
0.0023498893720912484
0.0023498893720912484
0.003692683299000534
0.0050354772259098195
0.007385366598001068
0.009063859006637675
0.010406652933546959
0.010406652933546959
0.011413748378728923
0.010406652933546959
0.011413748378728923
0.011749446860456245
0.010406652933546959
0.009063859006637675
0.007385366598001068
0.0050354772259098195
0.0030212863355458916
0.0023498893720912484
0.0030212863355458916
0.0023498893720912484
0.003356984817273213
0.0023498893720912484
0.0030212863355458916
0.003692683299000534
0.0050354772259098195
0.007049668116273747
0.009063859006637675
0.009735255970092317
0.011078049897001601
0.010406652933546959
0.010406652933546959
0.011078049897001601
0.011749446860456245
0.010070954451819639
0.008392462043183033
0.007049668116273747
0.003692683299000534
0.0030212863355458916
0.0023498893720912484
0.0023498893720912484
0.003356984817273213
0.0023498893720912484
0.0023498893720912484
0.0023498893720912484
0.003692683299000534
0.0050354772259098195
0.007049668116273747
0.009063859006637675
0.010070954451819639
0.010406652933546959
0.011078049897001601
0.010406652933546959
0.011749446860456245
0.011078049897001601
0.010406652933546959
0.009063859006637675
0.007385366598001068
0.0050354772259098195
0.003692683299000534
0.0030212863355458916
0.003692683299000534
0.003692683299000534
0.003692683299000534
0.004364080262455177
0.004699778744182497
0.004699778744182497
0.006378271152819104
0.007721065079728388
0.009063859006637675
0.010406652933546959
0.010406652933546959
0.010406652933546959
0.010406652933546959
0.010406652933546959
0.010406652933546959
0.009063859006637675
0.007385366598001068
0.006042572671091783
0.004699778744182497
0.003356984817273213
0.003692683299000534
0.003692683299000534
0.003692683299000534
0.004364080262455177
0.003692683299000534
0.0050354772259098195
0.0050354772259098195
0.006378271152819104
0.007721065079728388
0.009063859006637675
0.010406652933546959
0.010406652933546959
0.010406652933546959
0.010406652933546959
0.010406652933546959
0.010406652933546959
0.009063859006637675
0.007721065079728388
0.006378271152819104
0.0050354772259098195
0.003692683299000534
0.004364080262455177
0.004364080262455177
0.003692683299000534
0.004364080262455177
0.0050354772259098195
0.0050354772259098195
0.005706874189364461
0.006378271152819104
0.007049668116273747
0.009063859006637675
0.010070954451819639
0.010406652933546959
0.010406652933546959
0.010406652933546959
0.009063859006637675
0.009063859006637675
0.008392462043183033
0.007049668116273747
0.005706874189364461
0.0050354772259098195
0.0030212863355458916
0.003692683299000534
0.003692683299000534
0.003692683299000534
0.003692683299000534
0.004364080262455177
0.0050354772259098195
0.006378271152819104
0.007049668116273747
0.007721065079728388
0.010070954451819639
0.010406652933546959
0.009735255970092317
0.009735255970092317
0.009063859006637675
0.010406652933546959
0.010070954451819639
0.008392462043183033
0.007049668116273747
0.005706874189364461
0.0050354772259098195
0.003692683299000534
0.003692683299000534
0.003692683299000534
0.004364080262455177
0.004364080262455177
0.003692683299000534
0.004699778744182497
0.0050354772259098195
0.006378271152819104
0.009063859006637675
0.009399557488364994
0.010406652933546959
0.010406652933546959
0.010406652933546959
0.009735255970092317
0.009063859006637675
0.009063859006637675
0.007721065079728388
0.007049668116273747
0.005706874189364461
0.0050354772259098195
0.003692683299000534
0.003692683299000534
0.004028381780727854
0.004364080262455177
0.004364080262455177
0.004699778744182497
0.005706874189364461
0.006378271152819104
0.007721065079728388
0.009063859006637675
0.009063859006637675
0.009735255970092317
0.010406652933546959
0.009735255970092317
0.009735255970092317
0.009735255970092317
0.008392462043183033
0.007721065079728388
0.006378271152819104
0.0050354772259098195
0.004699778744182497
0.004364080262455177
0.003692683299000534
0.004364080262455177
0.004364080262455177
0.0050354772259098195
0.0050354772259098195
0.005706874189364461
0.006378271152819104
0.007721065079728388
0.009063859006637675
0.009735255970092317
0.010406652933546959
0.010406652933546959
0.009735255970092317
0.008728160524910353
0.009063859006637675
0.008728160524910353
0.007049668116273747
0.006378271152819104
0.0050354772259098195
0.003692683299000534
0.003692683299000534
0.004364080262455177
0.004364080262455177
0.0050354772259098195
0.005706874189364461
0.0050354772259098195
0.006378271152819104
0.007049668116273747
0.007721065079728388
0.009063859006637675
0.010406652933546959
0.009735255970092317
0.009735255970092317
0.009735255970092317
0.009063859006637675
0.009063859006637675
0.008392462043183033
0.007721065079728388
0.006042572671091783
0.004699778744182497
0.004364080262455177
0.004364080262455177
0.004364080262455177
0.004699778744182497
0.0050354772259098195
0.0050354772259098195
0.0050354772259098195
0.006042572671091783
0.006378271152819104
0.007721065079728388
0.008392462043183033
0.009063859006637675
0.010070954451819639
0.009735255970092317
0.009735255970092317
0.009063859006637675
0.009063859006637675
0.007721065079728388
0.007049668116273747
0.006378271152819104
0.0050354772259098195
0.0050354772259098195
0.0050354772259098195
0.004699778744182497
0.004028381780727854
0.004699778744182497
0.004364080262455177
0.004699778744182497
0.006378271152819104
0.007049668116273747
0.007385366598001068
0.008728160524910353
0.008728160524910353
0.009063859006637675
0.009735255970092317
0.009063859006637675
0.008392462043183033
0.007721065079728388
0.007385366598001068
0.007385366598001068
0.005706874189364461
0.004699778744182497
0.004699778744182497
0.003692683299000534
0.003692683299000534
0.004699778744182497
0.004364080262455177
0.0050354772259098195
0.0050354772259098195
0.007049668116273747
0.007385366598001068
0.008392462043183033
0.009063859006637675
0.009735255970092317
0.009063859006637675
0.009735255970092317
0.010070954451819639
0.009063859006637675
0.009063859006637675
0.008728160524910353
0.007049668116273747
0.0050354772259098195
0.0050354772259098195
0.0050354772259098195
0.004699778744182497
0.004364080262455177
0.0050354772259098195
0.004699778744182497
0.005706874189364461
0.005706874189364461
0.007721065079728388
0.007721065079728388
0.009063859006637675
0.009735255970092317
0.009735255970092317
0.009399557488364994
0.010070954451819639
0.009735255970092317
0.009063859006637675
0.007721065079728388
0.007385366598001068
0.006378271152819104
0.0050354772259098195
0.003692683299000534
0.004028381780727854
0.004364080262455177
0.004364080262455177
0.003692683299000534
0.0050354772259098195
0.006378271152819104
0.007049668116273747
0.007385366598001068
0.008392462043183033
0.009735255970092317
0.010406652933546959
0.010406652933546959
0.009735255970092317
0.009063859006637675
0.009399557488364994
0.009735255970092317
0.007721065079728388
0.006378271152819104
0.005706874189364461
0.004364080262455177
0.003692683299000534
0.004364080262455177
0.004364080262455177
0.004364080262455177
0.004364080262455177
0.0050354772259098195
0.005706874189364461
0.005706874189364461
0.007385366598001068
0.008392462043183033
0.009063859006637675
0.010406652933546959
0.009735255970092317
0.009735255970092317
0.009063859006637675
0.009063859006637675
0.008392462043183033
0.007721065079728388
0.006378271152819104
0.004364080262455177
0.003692683299000534
0.0030212863355458916
0.0030212863355458916
0.003356984817273213
0.003692683299000534
0.003692683299000534
0.004364080262455177
0.0050354772259098195
0.006378271152819104
0.007721065079728388
0.009063859006637675
0.010406652933546959
0.010406652933546959
0.010406652933546959
0.010070954451819639
0.009735255970092317
0.009735255970092317
0.008392462043183033
0.007721065079728388
0.006378271152819104
0.004699778744182497
0.003692683299000534
0.0030212863355458916
0.0023498893720912484
0.003692683299000534
0.004364080262455177
0.004364080262455177
0.004364080262455177
0.005706874189364461
0.007049668116273747
0.008392462043183033
0.009735255970092317
0.010406652933546959
0.011078049897001601
0.010406652933546959
0.010070954451819639
0.009063859006637675
0.008728160524910353
0.008392462043183033
0.006378271152819104
0.0050354772259098195
0.003692683299000534
0.0023498893720912484
0.002014190890363927
0.0023498893720912484
0.0023498893720912484
0.003692683299000534
0.0050354772259098195
0.004364080262455177
0.0050354772259098195
0.007721065079728388
0.008392462043183033
0.010406652933546959
0.011749446860456245
0.011749446860456245
0.010406652933546959
0.009735255970092317
0.009735255970092317
0.009063859006637675
0.007721065079728388
0.006378271152819104
0.004364080262455177
0.0023498893720912484
0.002014190890363927
0.0016784924086366065
0.0023498893720912484
0.003692683299000534
0.0050354772259098195
0.0050354772259098195
0.0050354772259098195
0.006378271152819104
0.007721065079728388
0.009735255970092317
0.010406652933546959
0.011749446860456245
0.012420843823910887
0.011413748378728923
0.010406652933546959
0.009063859006637675
0.008728160524910353
0.007721065079728388
0.006378271152819104
0.004364080262455177
0.002014190890363927
0.0023498893720912484
0.0023498893720912484
0.0023498893720912484
0.004364080262455177
0.0050354772259098195
0.005706874189364461
0.006378271152819104
0.007049668116273747
0.008728160524910353
0.010406652933546959
0.011749446860456245
0.012420843823910887
0.011749446860456245
0.011749446860456245
0.010406652933546959
0.009063859006637675
0.008392462043183033
0.007721065079728388
0.0050354772259098195
0.0023498893720912484
0.0016784924086366065
0.0010070954451819635
0.0023498893720912484
0.0023498893720912484
0.004364080262455177
0.0050354772259098195
0.006378271152819104
0.007385366598001068
0.007721065079728388
0.009063859006637675
0.011749446860456245
0.012420843823910887
0.012756542305638208
0.011749446860456245
0.010406652933546959
0.010406652933546959
0.008392462043183033
0.007721065079728388
0.006378271152819104
0.0050354772259098195
0.0023498893720912484
0.0010070954451819635
0.0010070954451819635
0.0023498893720912484
0.004028381780727854
0.0050354772259098195
0.0050354772259098195
0.007049668116273747
0.007049668116273747
0.007721065079728388
0.009735255970092317
0.011749446860456245
0.013092240787365528
0.013092240787365528
0.012420843823910887
0.010406652933546959
0.009063859006637675
0.007721065079728388
0.007721065079728388
0.005706874189364461
0.003692683299000534
0.0023498893720912484
0.0003356984817273213
0.0003356984817273213
0.002014190890363927
0.003692683299000534
0.004364080262455177
0.0050354772259098195
0.006378271152819104
0.006378271152819104
0.007721065079728388
0.009063859006637675
0.010406652933546959
0.012420843823910887
0.011749446860456245
0.010406652933546959
0.009735255970092317
0.009063859006637675
0.007721065079728388
0.007049668116273747
0.006378271152819104
0.004699778744182497
0.0023498893720912484
0.0010070954451819635
0.0010070954451819635
0.002014190890363927
0.004364080262455177
0.004364080262455177
0.005706874189364461
0.006378271152819104
0.007049668116273747
0.007721065079728388
0.010406652933546959
0.010406652933546959
0.011749446860456245
0.013092240787365528
0.011749446860456245
0.009735255970092317
0.009735255970092317
0.008392462043183033
0.007049668116273747
0.006378271152819104
0.004699778744182497
0.0030212863355458916
0.0010070954451819635
0.0016784924086366065
0.0030212863355458916
0.0050354772259098195
0.0050354772259098195
0.005706874189364461
0.006378271152819104
0.007721065079728388
0.007721065079728388
0.009063859006637675
0.010406652933546959
0.011749446860456245
0.011749446860456245
0.010406652933546959
0.008728160524910353
0.008728160524910353
0.007721065079728388
0.007049668116273747
0.005706874189364461
0.004699778744182497
0.003356984817273213
0.0023498893720912484
0.0023498893720912484
0.0030212863355458916
0.0050354772259098195
0.0050354772259098195
0.006042572671091783
0.006378271152819104
0.007049668116273747
0.007721065079728388
0.008392462043183033
0.010070954451819639
0.010406652933546959
0.011078049897001601
0.009735255970092317
0.008392462043183033
0.007721065079728388
0.007721065079728388
0.007049668116273747
0.006378271152819104
0.0050354772259098195
0.004364080262455177
0.003356984817273213
0.0030212863355458916
0.003692683299000534
0.0050354772259098195
0.006378271152819104
0.007049668116273747
0.007049668116273747
0.007721065079728388
0.007721065079728388
0.009063859006637675
0.009735255970092317
0.010406652933546959
0.010406652933546959
0.009399557488364994
0.008392462043183033
0.007385366598001068
0.007721065079728388
0.007049668116273747
0.005706874189364461
0.004364080262455177
0.003692683299000534
0.003692683299000534
0.0030212863355458916
0.004699778744182497
0.0050354772259098195
0.006378271152819104
0.006378271152819104
0.007049668116273747
0.007721065079728388
0.007721065079728388
0.008728160524910353
0.009063859006637675
0.010070954451819639
0.010406652933546959
0.009735255970092317
0.007721065079728388
0.007721065079728388
0.007721065079728388
0.007385366598001068
0.006378271152819104
0.0050354772259098195
0.0050354772259098195
0.0050354772259098195
0.004364080262455177
0.0050354772259098195
0.006378271152819104
0.006378271152819104
0.007721065079728388
0.007721065079728388
0.007049668116273747
0.007049668116273747
0.007721065079728388
0.008392462043183033
0.008728160524910353
0.009063859006637675
0.008392462043183033
0.007049668116273747
0.006378271152819104
0.006378271152819104
0.005706874189364461
0.006378271152819104
0.0050354772259098195
0.004699778744182497
0.004364080262455177
0.004364080262455177
0.004699778744182497
0.0050354772259098195
0.006042572671091783
0.006378271152819104
0.006378271152819104
0.007049668116273747
0.007721065079728388
0.007721065079728388
0.007721065079728388
0.009063859006637675
0.009735255970092317
0.008728160524910353
0.007721065079728388
0.007721065079728388
0.007721065079728388
0.007385366598001068
0.006378271152819104
0.006378271152819104
0.0050354772259098195
0.0050354772259098195
0.005706874189364461
0.005706874189364461
0.006042572671091783
0.007721065079728388
0.007385366598001068
0.007049668116273747
0.007049668116273747
0.007721065079728388
0.007721065079728388
0.007721065079728388
0.008392462043183033
0.008728160524910353
0.007721065079728388
0.006378271152819104
0.005706874189364461
0.006378271152819104
0.006378271152819104
0.005706874189364461
0.004699778744182497
0.004364080262455177
0.0050354772259098195
0.004699778744182497
0.0050354772259098195
0.0050354772259098195
0.006378271152819104
0.006713969634546426
0.006378271152819104
0.006378271152819104
0.007385366598001068
0.007385366598001068
0.007721065079728388
0.007721065079728388
0.007385366598001068
0.007385366598001068
0.006378271152819104
0.006378271152819104
0.005706874189364461
0.007049668116273747
0.006042572671091783
0.0050354772259098195
0.0050354772259098195
0.0050354772259098195
0.0050354772259098195
0.0050354772259098195
0.006713969634546426
0.007049668116273747
0.007385366598001068
0.006713969634546426
0.006378271152819104
0.007721065079728388
0.007721065079728388
0.007721065079728388
0.007721065079728388
0.007721065079728388
0.007721065079728388
0.007049668116273747
0.006378271152819104
0.007049668116273747
0.007049668116273747
0.007049668116273747
0.005706874189364461
0.0050354772259098195
0.005706874189364461
0.005706874189364461
0.006378271152819104
0.006378271152819104
0.007049668116273747
0.007049668116273747
0.007049668116273747
0.007721065079728388
0.007721065079728388
0.007721065079728388
0.007721065079728388
0.007721065079728388
0.007721065079728388
0.007721065079728388
0.007721065079728388
0.007385366598001068
0.007049668116273747
0.005706874189364461
0.006378271152819104
0.005706874189364461
0.006378271152819104
0.005706874189364461
0.005706874189364461
0.006378271152819104
0.007049668116273747
0.007721065079728388
0.007721065079728388
0.007721065079728388
0.007721065079728388
0.007721065079728388
0.007721065079728388
0.007721065079728388
0.009063859006637675
0.008392462043183033
0.007721065079728388
0.007721065079728388
0.006713969634546426
0.006378271152819104
0.006378271152819104
0.007721065079728388
0.007049668116273747
0.005706874189364461
0.006378271152819104
0.007049668116273747
0.006378271152819104
0.007721065079728388
0.007721065079728388
0.007721065079728388
0.007721065079728388
0.007721065079728388
0.007385366598001068
0.008392462043183033
0.007721065079728388
0.007721065079728388
0.007385366598001068
0.007385366598001068
0.007049668116273747
0.007049668116273747
0.006378271152819104
0.005706874189364461
0.005706874189364461
0.006378271152819104
0.0050354772259098195
0.0050354772259098195
0.006378271152819104
0.007049668116273747
0.007049668116273747
0.007721065079728388
0.007721065079728388
0.007721065079728388
0.007721065079728388
0.007721065079728388
0.007721065079728388
0.008728160524910353
0.008392462043183033
0.007721065079728388
0.007385366598001068
0.007049668116273747
0.006378271152819104
0.005706874189364461
0.007385366598001068
0.007049668116273747
0.006378271152819104
0.006378271152819104
0.0050354772259098195
0.006378271152819104
0.007721065079728388
0.007721065079728388
0.007385366598001068
0.007049668116273747
0.007049668116273747
0.007049668116273747
0.007049668116273747
0.006378271152819104
0.007049668116273747
0.007721065079728388
0.006378271152819104
0.006378271152819104
0.006378271152819104
0.005706874189364461
0.005706874189364461
0.006042572671091783
0.0050354772259098195
0.005706874189364461
0.0050354772259098195
0.0050354772259098195
0.0050354772259098195
0.006378271152819104
0.006378271152819104
0.007049668116273747
0.006378271152819104
0.007049668116273747
0.007385366598001068
0.007049668116273747
0.007049668116273747
0.007049668116273747
0.007049668116273747
0.007049668116273747
0.006378271152819104
0.006378271152819104
0.006378271152819104
0.006042572671091783
0.006378271152819104
0.006378271152819104
0.006042572671091783
0.005706874189364461
0.006042572671091783
0.006042572671091783
0.007385366598001068
0.007049668116273747
0.007385366598001068
0.007385366598001068
0.007385366598001068
0.007049668116273747
0.007721065079728388
0.007049668116273747
0.007049668116273747
0.007049668116273747
0.007049668116273747
0.006378271152819104
0.006378271152819104
0.006378271152819104
0.006378271152819104
0.0050354772259098195
0.0050354772259098195
0.005706874189364461
0.0050354772259098195
0.006378271152819104
0.006378271152819104
0.006378271152819104
0.007385366598001068
0.007049668116273747
0.007721065079728388
0.007721065079728388
0.007721065079728388
0.007721065079728388
0.007385366598001068
0.007721065079728388
0.007721065079728388
0.007721065079728388
0.007049668116273747
0.006378271152819104
0.006378271152819104
0.006378271152819104
0.006378271152819104
0.006378271152819104
0.006378271152819104
0.006042572671091783
0.0050354772259098195
0.0050354772259098195
0.006378271152819104
0.007049668116273747
0.007049668116273747
0.007049668116273747
0.006378271152819104
0.007049668116273747
0.007721065079728388
0.007721065079728388
0.007721065079728388
0.007721065079728388
0.007385366598001068
0.007049668116273747
0.006378271152819104
0.006378271152819104
0.007049668116273747
0.006378271152819104
0.006378271152819104
0.006042572671091783
0.006042572671091783
0.005706874189364461
0.006378271152819104
0.005706874189364461
0.007049668116273747
0.007385366598001068
0.007049668116273747
0.007385366598001068
0.007721065079728388
0.007721065079728388
0.007385366598001068
0.007721065079728388
0.007721065079728388
0.007049668116273747
0.007385366598001068
0.006378271152819104
0.006378271152819104
0.006378271152819104
0.006378271152819104
0.006042572671091783
0.006042572671091783
0.005706874189364461
0.006042572671091783
0.006378271152819104
0.006378271152819104
0.007721065079728388
0.007721065079728388
0.007721065079728388
0.007721065079728388
0.007721065079728388
0.008392462043183033
0.007721065079728388
0.007721065079728388
0.007385366598001068
0.007721065079728388
0.006378271152819104
0.006378271152819104
0.0050354772259098195
0.006042572671091783
0.006378271152819104
0.005706874189364461
0.0050354772259098195
0.006378271152819104
0.006378271152819104
0.007049668116273747
0.006378271152819104
0.007721065079728388
0.007049668116273747
0.007049668116273747
0.007721065079728388
0.007721065079728388
0.007721065079728388
0.007721065079728388
0.007049668116273747
0.007049668116273747
0.007049668116273747
0.006378271152819104
0.005706874189364461
0.005706874189364461
0.006042572671091783
0.005706874189364461
0.0050354772259098195
0.0050354772259098195
0.006378271152819104
0.006378271152819104
0.006378271152819104
0.006378271152819104
0.007721065079728388
0.008392462043183033
0.007721065079728388
0.007721065079728388
0.007385366598001068
0.008392462043183033
0.007721065079728388
0.007049668116273747
0.007049668116273747
0.006378271152819104
0.006378271152819104
0.0050354772259098195
0.0050354772259098195
0.005706874189364461
0.005706874189364461
0.0050354772259098195
0.004364080262455177
0.0050354772259098195
0.007049668116273747
0.006378271152819104
0.007049668116273747
0.007721065079728388
0.007721065079728388
0.007721065079728388
0.007721065079728388
0.007721065079728388
0.007721065079728388
0.007721065079728388
0.007049668116273747
0.007049668116273747
0.007049668116273747
0.006378271152819104
0.0050354772259098195
0.0050354772259098195
0.0050354772259098195
0.0050354772259098195
0.0050354772259098195
0.005706874189364461
0.0050354772259098195
0.0050354772259098195
0.007049668116273747
0.007049668116273747
0.007721065079728388
0.007721065079728388
0.007721065079728388
0.007721065079728388
0.007721065079728388
0.007721065079728388
0.007721065079728388
0.007721065079728388
0.007049668116273747
0.006378271152819104
0.006378271152819104
0.005706874189364461
0.005706874189364461
0.0050354772259098195
0.0050354772259098195
0.0050354772259098195
0.004699778744182497
0.005706874189364461
0.006378271152819104
0.007049668116273747
0.007385366598001068
0.007721065079728388
0.007721065079728388
0.007721065079728388
0.007721065079728388
0.007721065079728388
0.007721065079728388
0.007721065079728388
0.007721065079728388
0.006378271152819104
0.006713969634546426
0.006378271152819104
0.0050354772259098195
0.004699778744182497
0.0050354772259098195
0.005706874189364461
0.0050354772259098195
0.0050354772259098195
0.005706874189364461
0.007049668116273747
0.006713969634546426
0.007721065079728388
0.008392462043183033
0.008728160524910353
0.007721065079728388
0.008392462043183033
0.008392462043183033
0.009063859006637675
0.009063859006637675
0.009063859006637675
0.009063859006637675
0.007721065079728388
0.007385366598001068
0.006378271152819104
0.006378271152819104
0.0050354772259098195
0.006378271152819104
0.006378271152819104
0.0050354772259098195
0.005706874189364461
0.007049668116273747
0.007385366598001068
0.007721065079728388
0.008392462043183033
0.007721065079728388
0.008392462043183033
0.009063859006637675
0.008392462043183033
0.008392462043183033
0.007721065079728388
0.007721065079728388
0.007385366598001068
0.006378271152819104
0.005706874189364461
0.0050354772259098195
0.003692683299000534
0.004364080262455177
0.0050354772259098195
0.004364080262455177
0.003692683299000534
0.004364080262455177
0.0050354772259098195
0.006378271152819104
0.007049668116273747
0.007049668116273747
0.008392462043183033
0.007721065079728388
0.007721065079728388
0.007721065079728388
0.007721065079728388
0.007721065079728388
0.007721065079728388
0.007385366598001068
0.006378271152819104
0.006042572671091783
0.0050354772259098195
0.004364080262455177
0.004364080262455177
0.004364080262455177
0.004699778744182497
0.0050354772259098195
0.0050354772259098195
0.0050354772259098195
0.006378271152819104
0.007721065079728388
0.007721065079728388
0.008392462043183033
0.009063859006637675
0.009063859006637675
0.007721065079728388
0.009063859006637675
0.009735255970092317
0.009063859006637675
0.007721065079728388
0.007721065079728388
0.0050354772259098195
0.0050354772259098195
0.0050354772259098195
0.004364080262455177
0.004364080262455177
0.004364080262455177
0.004364080262455177
0.004364080262455177
0.005706874189364461
0.005706874189364461
0.007721065079728388
0.008392462043183033
0.009063859006637675
0.008728160524910353
0.009399557488364994
0.009735255970092317
0.009063859006637675
0.009063859006637675
0.008392462043183033
0.007721065079728388
0.007049668116273747
0.0050354772259098195
0.0053711757076371405
0.0050354772259098195
0.004364080262455177
0.004364080262455177
0.0050354772259098195
0.003692683299000534
0.003692683299000534
0.0050354772259098195
0.007385366598001068
0.008392462043183033
0.009063859006637675
0.009735255970092317
0.009063859006637675
0.009063859006637675
0.009735255970092317
0.009063859006637675
0.009063859006637675
0.008392462043183033
0.008728160524910353
0.006378271152819104
0.0050354772259098195
0.0050354772259098195
0.0050354772259098195
0.0050354772259098195
0.0050354772259098195
0.004699778744182497
0.0050354772259098195
0.0050354772259098195
0.006378271152819104
0.007721065079728388
0.009063859006637675
0.010406652933546959
0.010070954451819639
0.009063859006637675
0.010406652933546959
0.009735255970092317
0.009063859006637675
0.008728160524910353
0.007721065079728388
0.006378271152819104
0.0050354772259098195
0.004028381780727854
0.003692683299000534
0.003356984817273213
0.003692683299000534
0.0023498893720912484
0.0023498893720912484
0.003356984817273213
0.004364080262455177
0.0050354772259098195
0.006378271152819104
0.007721065079728388
0.007721065079728388
0.008392462043183033
0.007721065079728388
0.007721065079728388
0.007721065079728388
0.007721065079728388
0.006042572671091783
0.006042572671091783
0.0050354772259098195
0.003692683299000534
0.003356984817273213
0.003356984817273213
0.003356984817273213
0.0030212863355458916
0.0030212863355458916
0.003692683299000534
0.004364080262455177
0.0050354772259098195
0.005706874189364461
0.007721065079728388
0.008392462043183033
0.009735255970092317
0.009735255970092317
0.009063859006637675
0.009399557488364994
0.009063859006637675
0.009063859006637675
0.008392462043183033
0.007049668116273747
0.006378271152819104
0.006378271152819104
0.0050354772259098195
0.004364080262455177
0.003692683299000534
0.004364080262455177
0.004364080262455177
0.0050354772259098195
0.0050354772259098195
0.005706874189364461
0.007385366598001068
0.008392462043183033
0.010070954451819639
0.010070954451819639
0.010406652933546959
0.010406652933546959
0.010406652933546959
0.009735255970092317
0.009735255970092317
0.009735255970092317
0.007721065079728388
0.007721065079728388
0.007721065079728388
0.006378271152819104
0.005706874189364461
0.0050354772259098195
0.006378271152819104
0.0050354772259098195
0.0050354772259098195
0.006378271152819104
0.006378271152819104
0.006378271152819104
0.007721065079728388
0.009063859006637675
0.010406652933546959
0.010406652933546959
0.010406652933546959
0.009735255970092317
0.009735255970092317
0.009735255970092317
0.008728160524910353
0.007721065079728388
0.007721065079728388
0.006378271152819104
0.004699778744182497
0.004364080262455177
0.004364080262455177
0.004364080262455177
0.004364080262455177
0.004364080262455177
0.004364080262455177
0.006042572671091783
0.006378271152819104
0.007721065079728388
0.007721065079728388
0.009063859006637675
0.009735255970092317
0.008728160524910353
0.009063859006637675
0.008728160524910353
0.008392462043183033
0.009063859006637675
0.007721065079728388
0.007721065079728388
0.006378271152819104
0.0050354772259098195
0.0050354772259098195
0.004364080262455177
0.004364080262455177
0.004364080262455177
0.003692683299000534
0.004364080262455177
0.0050354772259098195
0.0050354772259098195
0.007721065079728388
0.008392462043183033
0.009063859006637675
0.009399557488364994
0.009063859006637675
0.008392462043183033
0.008728160524910353
0.009063859006637675
0.008392462043183033
0.007721065079728388
0.007049668116273747
0.006042572671091783
0.0050354772259098195
0.003692683299000534
0.003692683299000534
0.003692683299000534
0.003692683299000534
0.003692683299000534
0.004364080262455177
0.0050354772259098195
0.005706874189364461
0.007049668116273747
0.007721065079728388
0.009063859006637675
0.010406652933546959
0.010070954451819639
0.009063859006637675
0.009063859006637675
0.009735255970092317
0.009063859006637675
0.009063859006637675
0.008392462043183033
0.007385366598001068
0.005706874189364461
0.0050354772259098195
0.004364080262455177
0.004699778744182497
0.004364080262455177
0.003692683299000534
0.004364080262455177
0.004699778744182497
0.0050354772259098195
0.006378271152819104
0.007721065079728388
0.008392462043183033
0.009063859006637675
0.009063859006637675
0.009735255970092317
0.008728160524910353
0.009063859006637675
0.009063859006637675
0.007721065079728388
0.007721065079728388
0.006378271152819104
0.005706874189364461
0.0050354772259098195
0.004028381780727854
0.003692683299000534
0.0050354772259098195
0.003692683299000534
0.003692683299000534
0.004364080262455177
0.006042572671091783
0.007385366598001068
0.007721065079728388
0.007721065079728388
0.009063859006637675
0.009063859006637675
0.009063859006637675
0.008728160524910353
0.009063859006637675
0.009735255970092317
0.009063859006637675
0.007721065079728388
0.007049668116273747
0.006378271152819104
0.0050354772259098195
0.0050354772259098195
0.0050354772259098195
0.0050354772259098195
0.0050354772259098195
0.0050354772259098195
0.0050354772259098195
0.006378271152819104
0.007049668116273747
0.007721065079728388
0.009063859006637675
0.009063859006637675
0.009063859006637675
0.008728160524910353
0.009063859006637675
0.009063859006637675
0.008392462043183033
0.007721065079728388
0.007385366598001068
0.006378271152819104
0.005706874189364461
0.0050354772259098195
0.003692683299000534
0.004364080262455177
0.0050354772259098195
0.0050354772259098195
0.0050354772259098195
0.005706874189364461
0.006378271152819104
0.007049668116273747
0.007721065079728388
0.008728160524910353
0.009063859006637675
0.008392462043183033
0.009063859006637675
0.007721065079728388
0.007721065079728388
0.007721065079728388
0.007721065079728388
0.007049668116273747
0.006378271152819104
0.005706874189364461
0.0050354772259098195
0.0050354772259098195
0.004364080262455177
0.0050354772259098195
0.005706874189364461
0.0050354772259098195
0.005706874189364461
0.007049668116273747
0.007049668116273747
0.007721065079728388
0.009063859006637675
0.009063859006637675
0.009063859006637675
0.009063859006637675
0.008392462043183033
0.008392462043183033
0.008392462043183033
0.007049668116273747
0.006378271152819104
0.006378271152819104
0.0053711757076371405
0.005706874189364461
0.0050354772259098195
0.004364080262455177
0.0050354772259098195
0.005706874189364461
0.0050354772259098195
0.0050354772259098195
0.006378271152819104
0.007385366598001068
0.007721065079728388
0.007721065079728388
0.007721065079728388
0.008728160524910353
0.008392462043183033
0.007721065079728388
0.007721065079728388
0.007721065079728388
0.007385366598001068
0.006378271152819104
0.006378271152819104
0.0050354772259098195
0.0050354772259098195
0.0050354772259098195
0.0050354772259098195
0.0050354772259098195
0.0050354772259098195
0.0050354772259098195
0.005706874189364461
0.006378271152819104
0.007721065079728388
0.007721065079728388
0.008392462043183033
0.009063859006637675
0.008392462043183033
0.007721065079728388
0.007721065079728388
0.007721065079728388
0.008392462043183033
0.007721065079728388
0.007721065079728388
0.007385366598001068
0.006378271152819104
0.006378271152819104
0.006042572671091783
0.005706874189364461
0.0050354772259098195
0.006042572671091783
0.0050354772259098195
0.0050354772259098195
0.006378271152819104
0.007721065079728388
0.007721065079728388
0.007721065079728388
0.007721065079728388
0.007721065079728388
0.007721065079728388
0.007721065079728388
0.007385366598001068
0.007049668116273747
0.007049668116273747
0.007049668116273747
0.005706874189364461
0.0050354772259098195
0.0050354772259098195
0.0050354772259098195
0.0050354772259098195
0.0050354772259098195
0.0050354772259098195
0.0050354772259098195
0.0050354772259098195
0.006042572671091783
0.007385366598001068
0.007721065079728388
0.007385366598001068
0.007721065079728388
0.007721065079728388
0.008392462043183033
0.007721065079728388
0.007721065079728388
0.007721065079728388
0.007721065079728388
0.007049668116273747
0.006378271152819104
0.006042572671091783
0.005706874189364461
0.005706874189364461
0.0050354772259098195
0.0050354772259098195
0.0050354772259098195
0.005706874189364461
0.006042572671091783
0.006378271152819104
0.007049668116273747
0.007721065079728388
0.009063859006637675
0.007721065079728388
0.008728160524910353
0.008392462043183033
0.008392462043183033
0.007721065079728388
0.007721065079728388
0.007721065079728388
0.007721065079728388
0.006042572671091783
0.0050354772259098195
0.0050354772259098195
0.0050354772259098195
0.0050354772259098195
0.005706874189364461
0.006042572671091783
0.006378271152819104
0.007049668116273747
0.006378271152819104
0.007721065079728388
0.007721065079728388
0.008392462043183033
0.008728160524910353
0.007721065079728388
0.008392462043183033
0.007721065079728388
0.007721065079728388
0.007721065079728388
0.007721065079728388
0.007385366598001068
0.006378271152819104
0.006042572671091783
0.0050354772259098195
0.0050354772259098195
0.006042572671091783
0.006378271152819104
0.0050354772259098195
0.0050354772259098195
0.006378271152819104
0.007049668116273747
0.007385366598001068
0.008392462043183033
0.009063859006637675
0.008392462043183033
0.007721065079728388
0.008392462043183033
0.007721065079728388
0.009063859006637675
0.008728160524910353
0.007721065079728388
0.007721065079728388
0.007049668116273747
0.006042572671091783
0.005706874189364461
0.006378271152819104
0.0050354772259098195
0.005706874189364461
0.006378271152819104
0.006378271152819104
0.006378271152819104
0.007049668116273747
0.007721065079728388
0.009063859006637675
0.008392462043183033
0.008392462043183033
0.008392462043183033
0.008392462043183033
0.007721065079728388
0.007721065079728388
0.007721065079728388
0.007385366598001068
0.006378271152819104
0.006378271152819104
0.006042572671091783
0.005706874189364461
0.006378271152819104
0.0050354772259098195
0.0050354772259098195
0.0050354772259098195
0.006378271152819104
0.006378271152819104
0.006042572671091783
0.007385366598001068
0.007049668116273747
0.007721065079728388
0.008392462043183033
0.007721065079728388
0.007721065079728388
0.007721065079728388
0.007721065079728388
0.007385366598001068
0.007049668116273747
0.007385366598001068
0.006378271152819104
0.0050354772259098195
0.005706874189364461
0.005706874189364461
0.0050354772259098195
0.0050354772259098195
0.0050354772259098195
0.005706874189364461
0.006378271152819104
0.006378271152819104
0.007721065079728388
0.008392462043183033
0.008728160524910353
0.008728160524910353
0.008392462043183033
0.007721065079728388
0.007721065079728388
0.008392462043183033
0.007721065079728388
0.008392462043183033
0.007721065079728388
0.006378271152819104
0.006378271152819104
0.0050354772259098195
0.006042572671091783
0.006378271152819104
0.005706874189364461
0.005706874189364461
0.006378271152819104
0.007049668116273747
0.007721065079728388
0.007721065079728388
0.008392462043183033
0.009063859006637675
0.009063859006637675
0.008728160524910353
0.007721065079728388
0.008728160524910353
0.008392462043183033
0.007721065079728388
0.007721065079728388
0.007049668116273747
0.006378271152819104
0.0050354772259098195
0.0050354772259098195
0.0050354772259098195
0.005706874189364461
0.0050354772259098195
0.005706874189364461
0.006378271152819104
0.006378271152819104
0.007721065079728388
0.007721065079728388
0.007721065079728388
0.009063859006637675
0.007721065079728388
0.007721065079728388
0.007721065079728388
0.007721065079728388
0.007049668116273747
0.007721065079728388
0.007721065079728388
0.007049668116273747
0.006378271152819104
0.005706874189364461
0.0050354772259098195
0.0050354772259098195
0.0050354772259098195
0.006378271152819104
0.005706874189364461
0.006042572671091783
0.007049668116273747
0.007049668116273747
0.007721065079728388
0.007721065079728388
0.007721065079728388
0.008728160524910353
0.009063859006637675
0.007721065079728388
0.007721065079728388
0.008392462043183033
0.008392462043183033
0.007049668116273747
0.007385366598001068
0.006378271152819104
0.005706874189364461
0.0050354772259098195
0.005706874189364461
0.006042572671091783
0.0050354772259098195
0.0050354772259098195
0.0050354772259098195
0.0050354772259098195
0.006378271152819104
0.007721065079728388
0.007049668116273747
0.007721065079728388
0.007721065079728388
0.007721065079728388
0.007721065079728388
0.007721065079728388
0.008392462043183033
0.007721065079728388
0.006378271152819104
0.007049668116273747
0.006378271152819104
0.006378271152819104
0.005706874189364461
0.006378271152819104
0.0050354772259098195
0.005706874189364461
0.0050354772259098195
0.0050354772259098195
0.006378271152819104
0.007049668116273747
0.007721065079728388
0.007721065079728388
0.007385366598001068
0.007721065079728388
0.007721065079728388
0.007721065079728388
0.007721065079728388
0.007721065079728388
0.007721065079728388
0.007049668116273747
0.007049668116273747
0.005706874189364461
0.005706874189364461
0.005706874189364461
0.0050354772259098195
0.0053711757076371405
0.006378271152819104
0.006378271152819104
0.007049668116273747
0.007049668116273747
0.007721065079728388
0.007721065079728388
0.007721065079728388
0.008392462043183033
0.009735255970092317
0.008392462043183033
0.008392462043183033
0.007721065079728388
0.007721065079728388
0.007385366598001068
0.007049668116273747
0.006378271152819104
0.006378271152819104
0.0050354772259098195
0.005706874189364461
0.0050354772259098195
0.005706874189364461
0.0050354772259098195
0.0050354772259098195
0.005706874189364461
0.0050354772259098195
0.007721065079728388
0.008392462043183033
0.008392462043183033
0.007721065079728388
0.009063859006637675
0.009063859006637675
0.009063859006637675
0.008392462043183033
0.008392462043183033
0.008392462043183033
0.007721065079728388
0.007385366598001068
0.005706874189364461
0.005706874189364461
0.0050354772259098195
0.0050354772259098195
0.0050354772259098195
0.0050354772259098195
0.0050354772259098195
0.0050354772259098195
0.006378271152819104
0.006378271152819104
0.007049668116273747
0.007721065079728388
0.008392462043183033
0.008392462043183033
0.008392462043183033
0.007721065079728388
0.007721065079728388
0.007721065079728388
0.007721065079728388
0.007385366598001068
0.007049668116273747
0.005706874189364461
0.0050354772259098195
0.005706874189364461
0.005706874189364461
0.0050354772259098195
0.0050354772259098195
0.006042572671091783
0.006378271152819104
0.006378271152819104
0.007721065079728388
0.008392462043183033
0.009063859006637675
0.009063859006637675
0.008728160524910353
0.008728160524910353
0.008392462043183033
0.007721065079728388
0.007721065079728388
0.007721065079728388
0.007049668116273747
0.006378271152819104
0.0050354772259098195
0.0050354772259098195
0.0050354772259098195
0.004699778744182497
0.0050354772259098195
0.0050354772259098195
0.0050354772259098195
0.006042572671091783
0.006378271152819104
0.007049668116273747
0.007721065079728388
0.008392462043183033
0.007721065079728388
0.007721065079728388
0.007721065079728388
0.007721065079728388
0.007721065079728388
0.007721065079728388
0.007385366598001068
0.007049668116273747
0.006378271152819104
0.006378271152819104
0.0050354772259098195
0.005706874189364461
0.006042572671091783
0.005706874189364461
0.006378271152819104
0.006378271152819104
0.006378271152819104
0.007049668116273747
0.007049668116273747
0.007721065079728388
0.007721065079728388
0.007721065079728388
0.008728160524910353
0.008392462043183033
0.009063859006637675
0.008728160524910353
0.008392462043183033
0.007721065079728388
0.007721065079728388
0.006378271152819104
0.006042572671091783
0.006378271152819104
0.0050354772259098195
0.0050354772259098195
0.0050354772259098195
0.005706874189364461
0.006378271152819104
0.006378271152819104
0.007049668116273747
0.007385366598001068
0.007721065079728388
0.008728160524910353
0.008392462043183033
0.008728160524910353
0.007721065079728388
0.008392462043183033
0.008392462043183033
0.008392462043183033
0.007385366598001068
0.007049668116273747
0.006042572671091783
0.0050354772259098195
0.0050354772259098195
0.0050354772259098195
0.0050354772259098195
0.005706874189364461
0.006378271152819104
0.005706874189364461
0.006378271152819104
0.007721065079728388
0.007721065079728388
0.008392462043183033
0.009735255970092317
0.009735255970092317
0.009735255970092317
0.009063859006637675
0.009063859006637675
0.009063859006637675
0.008392462043183033
0.007721065079728388
0.006378271152819104
0.006713969634546426
0.0050354772259098195
0.0050354772259098195
0.0050354772259098195
0.0050354772259098195
0.0050354772259098195
0.0050354772259098195
0.006042572671091783
0.006378271152819104
0.007049668116273747
0.007385366598001068
0.008392462043183033
0.009063859006637675
0.007721065079728388
0.007385366598001068
0.008392462043183033
0.007721065079728388
0.008392462043183033
0.007049668116273747
0.006378271152819104
0.006378271152819104
0.005706874189364461
0.004699778744182497
0.004364080262455177
0.004364080262455177
0.004699778744182497
0.004699778744182497
0.004364080262455177
0.0050354772259098195
0.006378271152819104
0.007049668116273747
0.007721065079728388
0.007721065079728388
0.008728160524910353
0.009063859006637675
0.009063859006637675
0.008728160524910353
0.007721065079728388
0.008392462043183033
0.007721065079728388
0.006378271152819104
0.005706874189364461
0.005706874189364461
0.0050354772259098195
0.003692683299000534
0.003692683299000534
0.0050354772259098195
0.0050354772259098195
0.006042572671091783
0.0050354772259098195
0.006378271152819104
0.007049668116273747
0.007721065079728388
0.008728160524910353
0.009063859006637675
0.009735255970092317
0.009063859006637675
0.009735255970092317
0.009063859006637675
0.009063859006637675
0.007721065079728388
0.007721065079728388
0.007385366598001068
0.006378271152819104
0.0050354772259098195
0.004699778744182497
0.003692683299000534
0.0050354772259098195
0.0050354772259098195
0.0050354772259098195
0.005706874189364461
0.006042572671091783
0.007721065079728388
0.008392462043183033
0.009063859006637675
0.010070954451819639
0.010406652933546959
0.009735255970092317
0.009063859006637675
0.009063859006637675
0.007721065079728388
0.007385366598001068
0.006378271152819104
0.005706874189364461
0.0050354772259098195
0.004364080262455177
0.004364080262455177
0.004364080262455177
0.004364080262455177
0.006042572671091783
0.005706874189364461
0.006378271152819104
0.007049668116273747
0.007721065079728388
0.009063859006637675
0.009063859006637675
0.009063859006637675
0.009735255970092317
0.010406652933546959
0.008728160524910353
0.008392462043183033
0.007721065079728388
0.007721065079728388
0.006378271152819104
0.005706874189364461
0.0050354772259098195
0.004364080262455177
0.0030212863355458916
0.003692683299000534
0.004364080262455177
0.004364080262455177
0.004699778744182497
0.0050354772259098195
0.006042572671091783
0.007049668116273747
0.008728160524910353
0.008728160524910353
0.008392462043183033
0.009063859006637675
0.008728160524910353
0.008392462043183033
0.007721065079728388
0.007385366598001068
0.007385366598001068
0.006378271152819104
0.0050354772259098195
0.0050354772259098195
0.0050354772259098195
0.004364080262455177
0.003692683299000534
0.004364080262455177
0.0050354772259098195
0.0050354772259098195
0.006042572671091783
0.006713969634546426
0.007721065079728388
0.008728160524910353
0.008392462043183033
0.009735255970092317
0.009735255970092317
0.009063859006637675
0.009735255970092317
0.009063859006637675
0.007721065079728388
0.007385366598001068
0.006378271152819104
0.006378271152819104
0.0050354772259098195
0.0050354772259098195
0.004364080262455177
0.004364080262455177
0.0050354772259098195
0.0050354772259098195
0.0050354772259098195
0.006378271152819104
0.007049668116273747
0.007385366598001068
0.008392462043183033
0.009063859006637675
0.009735255970092317
0.009063859006637675
0.009735255970092317
0.009063859006637675
0.008728160524910353
0.007721065079728388
0.008392462043183033
0.007049668116273747
0.006378271152819104
0.0050354772259098195
0.0050354772259098195
0.0050354772259098195
0.004364080262455177
0.004364080262455177
0.004364080262455177
0.0050354772259098195
0.006042572671091783
0.007049668116273747
0.007385366598001068
0.008728160524910353
0.009063859006637675
0.009063859006637675
0.009399557488364994
0.009735255970092317
0.009063859006637675
0.008392462043183033
0.007721065079728388
0.007721065079728388
0.006378271152819104
0.006378271152819104
0.005706874189364461
0.0050354772259098195
0.003692683299000534
0.004364080262455177
0.004364080262455177
0.0050354772259098195
0.005706874189364461
0.006378271152819104
0.006378271152819104
0.007721065079728388
0.007721065079728388
0.009063859006637675
0.009063859006637675
0.009063859006637675
0.009063859006637675
0.009063859006637675
0.008392462043183033
0.007721065079728388
0.007049668116273747
0.006378271152819104
0.006378271152819104
0.0050354772259098195
0.004364080262455177
0.0050354772259098195
0.0050354772259098195
0.0050354772259098195
0.0050354772259098195
0.005706874189364461
0.006378271152819104
0.007049668116273747
0.007721065079728388
0.008728160524910353
0.009063859006637675
0.009063859006637675
0.009063859006637675
0.008728160524910353
0.008728160524910353
0.007721065079728388
0.007721065079728388
0.007049668116273747
0.006378271152819104
0.006378271152819104
0.004699778744182497
0.004364080262455177
0.004364080262455177
0.004364080262455177
0.004364080262455177
0.0050354772259098195
0.005706874189364461
0.007049668116273747
0.007721065079728388
0.008392462043183033
0.009063859006637675
0.009063859006637675
0.010070954451819639
0.009735255970092317
0.009063859006637675
0.008728160524910353
0.007721065079728388
0.007721065079728388
0.006378271152819104
0.006378271152819104
0.005706874189364461
0.004699778744182497
0.004364080262455177
0.0050354772259098195
0.0050354772259098195
0.0050354772259098195
0.0050354772259098195
0.0050354772259098195
0.006378271152819104
0.007385366598001068
0.007721065079728388
0.009063859006637675
0.009735255970092317
0.009399557488364994
0.007721065079728388
0.009063859006637675
0.008392462043183033
0.009063859006637675
0.007721065079728388
0.006378271152819104
0.005706874189364461
0.0050354772259098195
0.004699778744182497
0.003692683299000534
0.003692683299000534
0.0050354772259098195
0.0050354772259098195
0.0050354772259098195
0.0050354772259098195
0.006378271152819104
0.007049668116273747
0.007721065079728388
0.009063859006637675
0.009735255970092317
0.009735255970092317
0.009063859006637675
0.009063859006637675
0.008728160524910353
0.008392462043183033
0.007721065079728388
0.007049668116273747
0.006042572671091783
0.0050354772259098195
0.0030212863355458916
0.0030212863355458916
0.003692683299000534
0.004364080262455177
0.0050354772259098195
0.0050354772259098195
0.0050354772259098195
0.007721065079728388
0.007721065079728388
0.009063859006637675
0.009735255970092317
0.009735255970092317
0.010406652933546959
0.009735255970092317
0.008392462043183033
0.007721065079728388
0.007721065079728388
0.007721065079728388
0.007049668116273747
0.0050354772259098195
0.0050354772259098195
0.003692683299000534
0.003692683299000534
0.003356984817273213
0.003692683299000534
0.003692683299000534
0.003692683299000534
0.0050354772259098195
0.006378271152819104
0.007721065079728388
0.009063859006637675
0.010406652933546959
0.010406652933546959
0.010406652933546959
0.010406652933546959
0.010406652933546959
0.009735255970092317
0.009063859006637675
0.007721065079728388
0.007049668116273747
0.0050354772259098195
0.0050354772259098195
0.003692683299000534
0.0023498893720912484
0.0023498893720912484
0.0030212863355458916
0.004364080262455177
0.0050354772259098195
0.0050354772259098195
0.007049668116273747
0.008392462043183033
0.009735255970092317
0.010406652933546959
0.010406652933546959
0.010406652933546959
0.011078049897001601
0.009735255970092317
0.009735255970092317
0.009399557488364994
0.007721065079728388
0.007049668116273747
0.006378271152819104
0.004699778744182497
0.003356984817273213
0.0023498893720912484
0.0023498893720912484
0.0030212863355458916
0.003692683299000534
0.003692683299000534
0.004699778744182497
