EMG Sensor 0
0.0
0.0
0.0
0.0
0.0
0.0
0.0
0.0
0.0
0.0
0.0
0.0
0.0
0.0
0.0
0.0
0.0
0.0
0.0
0.0
0.0
0.0
0.0
0.0
0.0
0.0
0.0
0.0
0.0
0.0
0.0
0.0
0.0
0.0
0.0
0.0
0.0
0.0
0.0
0.0
0.0
0.0
0.0
0.0
0.0
0.0
0.0
0.0
0.0
0.0
0.0
0.0
0.0
0.0
0.0
0.0
0.0
0.0
0.0
0.0
0.0
0.0
0.0
0.0
0.0
0.0
0.0
0.0
0.0
0.0
0.0
0.0
0.0
0.0
0.0
0.0
0.0
0.0
0.0
0.0
0.0
0.0
0.0
0.0
0.0
0.0
0.0
0.0
0.0
0.0
0.0
0.0
0.0
0.0
0.0
0.0
0.0
0.0
0.0
0.0
0.0
0.0
0.0
0.0
0.0
0.0
0.0
0.0
0.0
0.0
0.0
0.0
0.0
0.0
0.0
0.0
0.0
0.0
0.0
0.0
0.0
0.0
0.0
0.0
0.0
0.0
0.0
0.0
0.0
0.0
0.0
0.0
0.0
0.0
0.0
0.0
-0.008392462043183033
0.0010070954451819635
0.0010070954451819635
0.0016784924086366065
0.0023498893720912484
0.0023498893720912484
0.0030212863355458916
0.0050354772259098195
0.006378271152819104
0.007049668116273747
0.009735255970092317
0.011078049897001601
0.011749446860456245
0.011413748378728923
0.011413748378728923
0.010406652933546959
0.010070954451819639
0.009063859006637675
0.007721065079728388
0.005706874189364461
0.003356984817273213
0.0016784924086366065
0.0016784924086366065
0.0016784924086366065
0.0010070954451819635
0.0016784924086366065
0.0023498893720912484
0.003692683299000534
0.004699778744182497
0.005706874189364461
0.007721065079728388
0.009063859006637675
0.010406652933546959
0.011749446860456245
0.011078049897001601
0.011749446860456245
0.010406652933546959
0.010406652933546959
0.009063859006637675
0.007721065079728388
0.0050354772259098195
0.003692683299000534
0.0016784924086366065
0.0010070954451819635
-0.0003356984817273213
0.0003356984817273213
0.0023498893720912484
0.0023498893720912484
0.003692683299000534
0.004364080262455177
0.006378271152819104
0.007721065079728388
0.010070954451819639
0.011749446860456245
0.011749446860456245
0.011749446860456245
0.010406652933546959
0.011078049897001601
0.009063859006637675
0.009063859006637675
0.007721065079728388
0.005706874189364461
0.003692683299000534
0.0016784924086366065
0.0006713969634546426
0.0003356984817273213
0.0016784924086366065
0.0023498893720912484
0.0023498893720912484
0.003692683299000534
0.004364080262455177
0.0050354772259098195
0.007721065079728388
0.009063859006637675
0.011078049897001601
0.011749446860456245
0.011749446860456245
0.011413748378728923
0.010406652933546959
0.010406652933546959
0.008392462043183033
0.007721065079728388
0.0050354772259098195
0.0023498893720912484
0.0016784924086366065
0.0010070954451819635
0.0013427939269092851
0.002014190890363927
0.0023498893720912484
0.0023498893720912484
0.003692683299000534
0.004364080262455177
0.006378271152819104
0.007721065079728388
0.010406652933546959
0.011749446860456245
0.013092240787365528
0.012420843823910887
0.011749446860456245
0.011078049897001601
0.010070954451819639
0.009063859006637675
0.007721065079728388
0.005706874189364461
0.003692683299000534
0.0023498893720912484
0.0010070954451819635
0.0010070954451819635
0.0010070954451819635
0.0010070954451819635
0.0023498893720912484
0.0023498893720912484
0.003692683299000534
0.0050354772259098195
0.007049668116273747
0.009735255970092317
0.011413748378728923
0.011749446860456245
0.011749446860456245
0.011749446860456245
0.010406652933546959
0.010406652933546959
0.009063859006637675
0.007721065079728388
0.005706874189364461
0.0030212863355458916
0.0010070954451819635
0.0006713969634546426
0.0003356984817273213
0.0010070954451819635
0.0023498893720912484
0.0023498893720912484
0.0030212863355458916
0.003692683299000534
0.0050354772259098195
0.007049668116273747
0.009063859006637675
0.010406652933546959
0.012420843823910887
0.011749446860456245
0.010406652933546959
0.010406652933546959
0.010406652933546959
0.009063859006637675
0.007721065079728388
0.0050354772259098195
0.0030212863355458916
0.0016784924086366065
0.0010070954451819635
0.0013427939269092851
0.0010070954451819635
0.0016784924086366065
0.0023498893720912484
0.0030212863355458916
0.004364080262455177
0.006378271152819104
0.007721065079728388
0.009735255970092317
0.011413748378728923
0.012420843823910887
0.011749446860456245
0.011749446860456245
0.010406652933546959
0.010406652933546959
0.009063859006637675
0.007049668116273747
0.004364080262455177
0.003356984817273213
0.0010070954451819635
0.0010070954451819635
0.0010070954451819635
0.0010070954451819635
0.0023498893720912484
0.0023498893720912484
0.003356984817273213
0.004699778744182497
0.006378271152819104
0.007721065079728388
0.009063859006637675
0.010406652933546959
0.011749446860456245
0.011413748378728923
0.011078049897001601
0.010406652933546959
0.009399557488364994
0.008392462043183033
0.007049668116273747
0.004699778744182497
0.0030212863355458916
0.0010070954451819635
0.0003356984817273213
0.0006713969634546426
0.0010070954451819635
0.002014190890363927
0.0023498893720912484
0.0023498893720912484
0.003692683299000534
0.005706874189364461
0.007721065079728388
0.009735255970092317
0.011749446860456245
0.011749446860456245
0.011749446860456245
0.011749446860456245
0.010406652933546959
0.010406652933546959
0.009735255970092317
0.007049668116273747
0.0050354772259098195
0.003356984817273213
0.0010070954451819635
0.0010070954451819635
0.0010070954451819635
0.0010070954451819635
0.002014190890363927
0.0023498893720912484
0.0023498893720912484
0.004364080262455177
0.006378271152819104
0.007721065079728388
0.009063859006637675
0.010406652933546959
0.012420843823910887
0.011749446860456245
0.011413748378728923
0.011413748378728923
0.010406652933546959
0.009063859006637675
0.007049668116273747
0.0050354772259098195
0.003692683299000534
0.0023498893720912484
0.0016784924086366065
0.0010070954451819635
0.0016784924086366065
0.0023498893720912484
0.0023498893720912484
0.0030212863355458916
0.004364080262455177
0.005706874189364461
0.007721065079728388
0.009735255970092317
0.011749446860456245
0.012756542305638208
0.011749446860456245
0.011413748378728923
0.010070954451819639
0.010406652933546959
0.009063859006637675
0.007721065079728388
0.006378271152819104
0.003356984817273213
0.0010070954451819635
0.0006713969634546426
-0.0003356984817273213
0.0003356984817273213
0.0023498893720912484
0.0030212863355458916
0.003692683299000534
0.004364080262455177
0.006378271152819104
0.007721065079728388
0.009063859006637675
0.011078049897001601
0.012420843823910887
0.012756542305638208
0.011413748378728923
0.010406652933546959
0.011078049897001601
0.010070954451819639
0.007721065079728388
0.0050354772259098195
0.0023498893720912484
0.002014190890363927
0.0010070954451819635
0.0010070954451819635
0.0006713969634546426
0.0010070954451819635
0.0023498893720912484
0.003692683299000534
0.0050354772259098195
0.006378271152819104
0.007721065079728388
0.009063859006637675
0.011749446860456245
0.011749446860456245
0.012420843823910887
0.011749446860456245
0.010406652933546959
0.009735255970092317
0.009063859006637675
0.007049668116273747
0.0050354772259098195
0.0030212863355458916
0.0010070954451819635
-0.0003356984817273213
0.0006713969634546426
0.0003356984817273213
0.0016784924086366065
0.002014190890363927
0.0030212863355458916
0.004699778744182497
0.006378271152819104
0.007721065079728388
0.010070954451819639
0.012756542305638208
0.011749446860456245
0.013092240787365528
0.011749446860456245
0.010406652933546959
0.010406652933546959
0.009735255970092317
0.007721065079728388
0.0050354772259098195
0.0023498893720912484
0.0016784924086366065
0.0003356984817273213
-0.0003356984817273213
0.0003356984817273213
0.0023498893720912484
0.0030212863355458916
0.0030212863355458916
0.0050354772259098195
0.005706874189364461
0.007721065079728388
0.009735255970092317
0.011413748378728923
0.010406652933546959
0.011413748378728923
0.011413748378728923
0.010406652933546959
0.009735255970092317
0.009063859006637675
0.007049668116273747
0.003692683299000534
0.0023498893720912484
0.0006713969634546426
-0.0003356984817273213
0.0003356984817273213
0.0003356984817273213
0.0010070954451819635
0.0023498893720912484
0.003356984817273213
0.003692683299000534
0.006378271152819104
0.007721065079728388
0.010406652933546959
0.011078049897001601
0.011749446860456245
0.012085145342183566
0.011078049897001601
0.010406652933546959
0.010406652933546959
0.009735255970092317
0.007721065079728388
0.005706874189364461
0.0023498893720912484
0.0010070954451819635
0.0003356984817273213
0.0003356984817273213
-0.0003356984817273213
0.0016784924086366065
0.0023498893720912484
0.0030212863355458916
0.0050354772259098195
0.006378271152819104
0.008728160524910353
0.010406652933546959
0.011749446860456245
0.011749446860456245
0.011749446860456245
0.011749446860456245
0.010406652933546959
0.009063859006637675
0.009063859006637675
0.007049668116273747
0.004364080262455177
0.0023498893720912484
0.0010070954451819635
0.0003356984817273213
0.0006713969634546426
0.0006713969634546426
0.0016784924086366065
0.0023498893720912484
0.0030212863355458916
0.004364080262455177
0.005706874189364461
0.007721065079728388
0.009735255970092317
0.011749446860456245
0.011749446860456245
0.011749446860456245
0.011749446860456245
0.011413748378728923
0.010070954451819639
0.009063859006637675
0.007721065079728388
0.0050354772259098195
0.0030212863355458916
0.0010070954451819635
-0.0003356984817273213
0.0010070954451819635
0.0010070954451819635
0.0010070954451819635
0.0023498893720912484
0.0030212863355458916
0.004028381780727854
0.005706874189364461
0.007721065079728388
0.010406652933546959
0.011749446860456245
0.012420843823910887
0.012420843823910887
0.011749446860456245
0.010406652933546959
0.009735255970092317
0.009063859006637675
0.007721065079728388
0.0050354772259098195
0.0023498893720912484
0.0010070954451819635
-0.0003356984817273213
-0.0003356984817273213
0.0003356984817273213
0.0010070954451819635
0.0023498893720912484
0.003692683299000534
0.004364080262455177
0.006378271152819104
0.008392462043183033
0.010406652933546959
0.012420843823910887
0.012420843823910887
0.011749446860456245
0.012420843823910887
0.011078049897001601
0.010406652933546959
0.008728160524910353
0.007049668116273747
0.0050354772259098195
0.0023498893720912484
0.0010070954451819635
0.0010070954451819635
0.0010070954451819635
0.0010070954451819635
0.0016784924086366065
0.0023498893720912484
0.003356984817273213
0.0050354772259098195
0.006378271152819104
0.007049668116273747
0.009735255970092317
0.011749446860456245
0.012756542305638208
0.012420843823910887
0.011749446860456245
0.011749446860456245
0.010406652933546959
0.009063859006637675
0.007721065079728388
0.0050354772259098195
0.0023498893720912484
0.0010070954451819635
0.0003356984817273213
-0.0003356984817273213
0.0003356984817273213
0.0010070954451819635
0.0023498893720912484
0.003692683299000534
0.004364080262455177
0.005706874189364461
0.007721065079728388
0.009735255970092317
0.011749446860456245
0.011749446860456245
0.011749446860456245
0.010406652933546959
0.010406652933546959
0.010070954451819639
0.008728160524910353
0.007049668116273747
0.0050354772259098195
0.003692683299000534
0.0010070954451819635
0.0003356984817273213
0.0010070954451819635
0.0023498893720912484
0.002014190890363927
0.0030212863355458916
0.003692683299000534
0.004699778744182497
0.006378271152819104
0.007721065079728388
0.010406652933546959
0.012420843823910887
0.013092240787365528
0.011749446860456245
0.011078049897001601
0.011078049897001601
0.010406652933546959
0.008728160524910353
0.007049668116273747
0.0050354772259098195
0.0030212863355458916
0.0003356984817273213
-0.0003356984817273213
0.0010070954451819635
0.0010070954451819635
0.0016784924086366065
0.0023498893720912484
0.003692683299000534
0.0050354772259098195
0.006042572671091783
0.007721065079728388
0.009735255970092317
0.012420843823910887
0.013092240787365528
0.011749446860456245
0.010406652933546959
0.010406652933546959
0.010406652933546959
0.009063859006637675
0.007049668116273747
0.0050354772259098195
0.0030212863355458916
0.0010070954451819635
-0.0003356984817273213
-0.0003356984817273213
0.0010070954451819635
0.0016784924086366065
0.002014190890363927
0.0023498893720912484
0.004364080262455177
0.005706874189364461
0.007721065079728388
0.010406652933546959
0.011749446860456245
0.011749446860456245
0.011749446860456245
0.011749446860456245
0.010406652933546959
0.010406652933546959
0.009399557488364994
0.007049668116273747
0.004364080262455177
0.0023498893720912484
0.0010070954451819635
-0.0003356984817273213
0.0006713969634546426
0.0010070954451819635
0.0016784924086366065
0.0023498893720912484
0.003692683299000534
0.0050354772259098195
0.006378271152819104
0.007385366598001068
0.009063859006637675
0.011078049897001601
0.011749446860456245
0.011749446860456245
0.010406652933546959
0.010406652933546959
0.010070954451819639
0.009063859006637675
0.006378271152819104
0.0050354772259098195
0.003356984817273213
0.0010070954451819635
0.0003356984817273213
0.0003356984817273213
0.002014190890363927
0.0023498893720912484
0.0030212863355458916
0.003692683299000534
0.0050354772259098195
0.006378271152819104
0.009063859006637675
0.010406652933546959
0.011749446860456245
0.011749446860456245
0.012420843823910887
0.011749446860456245
0.010406652933546959
0.010070954451819639
0.009063859006637675
0.007049668116273747
0.004699778744182497
0.0023498893720912484
0.0010070954451819635
0.0006713969634546426
0.0003356984817273213
0.0016784924086366065
0.0016784924086366065
0.0016784924086366065
0.0030212863355458916
0.004699778744182497
0.006378271152819104
0.008392462043183033
0.010070954451819639
0.011749446860456245
0.012420843823910887
0.011749446860456245
0.011413748378728923
0.010406652933546959
0.010406652933546959
0.009063859006637675
0.007049668116273747
0.004364080262455177
0.0023498893720912484
0.0010070954451819635
0.0003356984817273213
-0.0003356984817273213
0.0010070954451819635
0.0016784924086366065
0.0023498893720912484
0.0030212863355458916
0.003692683299000534
0.006042572671091783
0.007721065079728388
0.010070954451819639
0.011749446860456245
0.012085145342183566
0.013092240787365528
0.011749446860456245
0.010406652933546959
0.010070954451819639
0.009063859006637675
0.007385366598001068
0.0050354772259098195
0.0023498893720912484
0.0010070954451819635
0.0003356984817273213
0.0003356984817273213
0.0010070954451819635
0.0016784924086366065
0.0023498893720912484
0.0023498893720912484
0.004364080262455177
0.006378271152819104
0.007721065079728388
0.009063859006637675
0.011749446860456245
0.011749446860456245
0.012085145342183566
0.011749446860456245
0.010406652933546959
0.009735255970092317
0.007721065079728388
0.007049668116273747
0.004364080262455177
0.0016784924086366065
0.0010070954451819635
-0.0003356984817273213
0.0003356984817273213
0.0016784924086366065
0.002014190890363927
0.0023498893720912484
0.003692683299000534
0.004699778744182497
0.006378271152819104
0.007721065079728388
0.010406652933546959
0.011749446860456245
0.012420843823910887
0.012420843823910887
0.011413748378728923
0.010406652933546959
0.009735255970092317
0.009063859006637675
0.007721065079728388
0.0050354772259098195
0.0023498893720912484
0.0016784924086366065
-0.0003356984817273213
0.0006713969634546426
0.0010070954451819635
0.0023498893720912484
0.003356984817273213
0.0023498893720912484
0.003692683299000534
0.0050354772259098195
0.007721065079728388
0.010406652933546959
0.010406652933546959
0.011078049897001601
0.011749446860456245
0.011749446860456245
0.010406652933546959
0.009063859006637675
0.009063859006637675
0.006378271152819104
0.0050354772259098195
0.0023498893720912484
0.0010070954451819635
0.0010070954451819635
0.0010070954451819635
0.0010070954451819635
0.0016784924086366065
0.0023498893720912484
0.0030212863355458916
0.004364080262455177
0.006042572671091783
0.009063859006637675
0.009735255970092317
0.011749446860456245
0.012420843823910887
0.012756542305638208
0.011749446860456245
0.010406652933546959
0.009735255970092317
0.009399557488364994
0.007049668116273747
0.003692683299000534
0.0023498893720912484
0.0016784924086366065
0.0003356984817273213
0.0010070954451819635
0.0010070954451819635
0.0016784924086366065
0.0016784924086366065
0.0030212863355458916
0.004364080262455177
0.006378271152819104
0.008728160524910353
0.010406652933546959
0.011749446860456245
0.012420843823910887
0.012420843823910887
0.011749446860456245
0.010406652933546959
0.009735255970092317
0.009399557488364994
0.007385366598001068
0.0050354772259098195
0.0023498893720912484
0.0016784924086366065
0.0010070954451819635
0.0010070954451819635
0.0010070954451819635
0.0023498893720912484
0.0023498893720912484
0.003692683299000534
0.004364080262455177
0.005706874189364461
0.007385366598001068
0.009735255970092317
0.011749446860456245
0.011749446860456245
0.011078049897001601
0.010406652933546959
0.010406652933546959
0.010406652933546959
0.008392462043183033
0.007049668116273747
0.004364080262455177
0.0023498893720912484
0.0010070954451819635
0.0010070954451819635
0.0006713969634546426
0.0010070954451819635
0.0023498893720912484
0.0023498893720912484
0.003356984817273213
0.004364080262455177
0.006378271152819104
0.007721065079728388
0.009735255970092317
0.011749446860456245
0.012420843823910887
0.011749446860456245
0.011749446860456245
0.010406652933546959
0.009399557488364994
0.008392462043183033
0.007049668116273747
0.0050354772259098195
0.0023498893720912484
0.0010070954451819635
0.0010070954451819635
0.0003356984817273213
0.0016784924086366065
0.002014190890363927
0.0023498893720912484
0.003692683299000534
0.0050354772259098195
0.007049668116273747
0.008392462043183033
0.010406652933546959
0.011749446860456245
0.011749446860456245
0.011749446860456245
0.011749446860456245
0.010406652933546959
0.010406652933546959
0.009063859006637675
0.007049668116273747
0.004364080262455177
0.0030212863355458916
0.0016784924086366065
-0.0003356984817273213
0.0016784924086366065
0.0016784924086366065
0.002014190890363927
0.002014190890363927
0.0023498893720912484
0.004699778744182497
0.006378271152819104
0.007721065079728388
0.009735255970092317
0.011749446860456245
0.011749446860456245
0.011749446860456245
0.011749446860456245
0.011078049897001601
0.009735255970092317
0.009063859006637675
0.006378271152819104
0.0050354772259098195
0.0023498893720912484
0.0010070954451819635
0.0010070954451819635
0.0010070954451819635
0.0016784924086366065
0.0016784924086366065
0.002014190890363927
0.0030212863355458916
0.0050354772259098195
0.006378271152819104
0.007721065079728388
0.009735255970092317
0.011413748378728923
0.011749446860456245
0.011078049897001601
0.010406652933546959
0.010406652933546959
0.009735255970092317
0.007721065079728388
0.006713969634546426
0.004699778744182497
0.0023498893720912484
0.0010070954451819635
0.0003356984817273213
0.0006713969634546426
0.0016784924086366065
0.0016784924086366065
0.0023498893720912484
0.003692683299000534
0.0050354772259098195
0.006378271152819104
0.007721065079728388
0.010406652933546959
0.011749446860456245
0.012420843823910887
0.011749446860456245
0.011749446860456245
0.010406652933546959
0.010406652933546959
0.009063859006637675
0.007049668116273747
0.0050354772259098195
0.0023498893720912484
0.0010070954451819635
0.0003356984817273213
0.0006713969634546426
0.0016784924086366065
0.0023498893720912484
0.003692683299000534
0.003692683299000534
0.0050354772259098195
0.007049668116273747
0.007721065079728388
0.010406652933546959
0.012420843823910887
0.012420843823910887
0.012420843823910887
0.011078049897001601
0.010406652933546959
0.010406652933546959
0.009735255970092317
0.007049668116273747
0.004699778744182497
0.0023498893720912484
0.0016784924086366065
-0.0003356984817273213
0.0010070954451819635
0.0016784924086366065
0.0023498893720912484
0.0030212863355458916
0.003692683299000534
0.004699778744182497
0.007049668116273747
0.009063859006637675
0.010406652933546959
0.011749446860456245
0.013092240787365528
0.011749446860456245
0.011078049897001601
0.010406652933546959
0.009735255970092317
0.007721065079728388
0.006378271152819104
0.004364080262455177
0.0023498893720912484
0.0003356984817273213
-0.0003356984817273213
0.0006713969634546426
0.0016784924086366065
0.0023498893720912484
0.0023498893720912484
0.0030212863355458916
0.0050354772259098195
0.006378271152819104
0.007721065079728388
0.009063859006637675
0.011749446860456245
0.012420843823910887
0.011749446860456245
0.011078049897001601
0.010406652933546959
0.009735255970092317
0.008728160524910353
0.006378271152819104
0.0050354772259098195
0.0030212863355458916
0.0016784924086366065
0.0010070954451819635
0.0010070954451819635
0.0016784924086366065
0.0016784924086366065
0.0023498893720912484
0.0030212863355458916
0.0050354772259098195
0.006378271152819104
0.007721065079728388
0.010070954451819639
0.011749446860456245
0.013092240787365528
0.012420843823910887
0.011078049897001601
0.010406652933546959
0.011078049897001601
0.009063859006637675
0.007721065079728388
0.0050354772259098195
0.0023498893720912484
0.0016784924086366065
0.0010070954451819635
0.0010070954451819635
0.0010070954451819635
0.0013427939269092851
0.0023498893720912484
0.003692683299000534
0.0050354772259098195
0.007049668116273747
0.007721065079728388
0.010406652933546959
0.011749446860456245
0.012420843823910887
0.012420843823910887
0.011749446860456245
0.010406652933546959
0.010406652933546959
0.009063859006637675
0.006378271152819104
0.004364080262455177
0.0030212863355458916
0.0010070954451819635
0.0006713969634546426
0.0010070954451819635
0.0010070954451819635
0.002014190890363927
0.0023498893720912484
0.0030212863355458916
0.004364080262455177
0.006378271152819104
0.008392462043183033
0.010070954451819639
0.011413748378728923
0.012756542305638208
0.012420843823910887
0.011413748378728923
0.010406652933546959
0.009063859006637675
0.008728160524910353
0.006378271152819104
0.004364080262455177
0.0016784924086366065
0.0006713969634546426
0.0006713969634546426
0.0003356984817273213
0.0003356984817273213
0.0016784924086366065
0.0030212863355458916
0.003692683299000534
0.004364080262455177
0.007049668116273747
0.008728160524910353
0.010406652933546959
0.012085145342183566
0.013092240787365528
0.011749446860456245
0.011413748378728923
0.010406652933546959
0.009063859006637675
0.009063859006637675
0.007049668116273747
0.003692683299000534
0.0016784924086366065
0.0010070954451819635
0.0006713969634546426
0.0003356984817273213
0.0003356984817273213
0.0023498893720912484
0.0023498893720912484
0.003692683299000534
0.004699778744182497
0.006378271152819104
0.008392462043183033
0.009735255970092317
0.012420843823910887
0.011749446860456245
0.011749446860456245
0.011749446860456245
0.010406652933546959
0.010406652933546959
0.009063859006637675
0.007049668116273747
0.004699778744182497
0.0023498893720912484
0.0010070954451819635
0.0003356984817273213
-0.0003356984817273213
0.0003356984817273213
0.0010070954451819635
0.0023498893720912484
0.0023498893720912484
0.003692683299000534
0.006378271152819104
0.007721065079728388
0.010406652933546959
0.012420843823910887
0.012420843823910887
0.012420843823910887
0.011749446860456245
0.010406652933546959
0.010406652933546959
0.009063859006637675
0.006378271152819104
0.004364080262455177
0.002014190890363927
0.0003356984817273213
-0.0003356984817273213
-0.0003356984817273213
0.0010070954451819635
0.002014190890363927
0.0023498893720912484
0.003692683299000534
0.003692683299000534
0.006378271152819104
0.009063859006637675
0.011078049897001601
0.012420843823910887
0.012420843823910887
0.012420843823910887
0.012420843823910887
0.010406652933546959
0.009735255970092317
0.009063859006637675
0.007049668116273747
0.003692683299000534
0.0023498893720912484
-0.0003356984817273213
-0.0006713969634546426
-0.0010070954451819635
-0.0003356984817273213
0.0016784924086366065
0.0016784924086366065
0.0023498893720912484
0.004364080262455177
0.006378271152819104
0.008728160524910353
0.010406652933546959
0.012420843823910887
0.012756542305638208
0.012420843823910887
0.011749446860456245
0.010406652933546959
0.009735255970092317
0.007721065079728388
0.005706874189364461
0.004364080262455177
0.0016784924086366065
-0.0003356984817273213
-0.0003356984817273213
-0.0003356984817273213
0.0006713969634546426
0.0010070954451819635
0.0023498893720912484
0.003692683299000534
0.0050354772259098195
0.007049668116273747
0.009735255970092317
0.011413748378728923
0.012420843823910887
0.013092240787365528
0.013092240787365528
0.011749446860456245
0.011078049897001601
0.010406652933546959
0.009063859006637675
0.007385366598001068
0.004364080262455177
0.0016784924086366065
0.0003356984817273213
-0.0003356984817273213
0.0006713969634546426
0.0003356984817273213
0.0023498893720912484
0.0023498893720912484
0.003692683299000534
0.005706874189364461
0.007721065079728388
0.009063859006637675
0.011413748378728923
0.013092240787365528
0.01376363775082017
0.013092240787365528
0.011749446860456245
0.010406652933546959
0.010406652933546959
0.008728160524910353
0.007385366598001068
0.003692683299000534
0.0006713969634546426
-0.0010070954451819635
-0.0013427939269092851
-0.0003356984817273213
0.0003356984817273213
0.0010070954451819635
0.0010070954451819635
0.0023498893720912484
0.0050354772259098195
0.007049668116273747
0.009063859006637675
0.011413748378728923
0.013092240787365528
0.011749446860456245
0.011749446860456245
0.011413748378728923
0.010406652933546959
0.010406652933546959
0.009735255970092317
0.007049668116273747
0.003692683299000534
0.0010070954451819635
-0.0003356984817273213
-0.0016784924086366065
-0.0010070954451819635
-0.0003356984817273213
-0.0003356984817273213
0.0010070954451819635
0.0023498893720912484
0.003692683299000534
0.006378271152819104
0.009735255970092317
0.013092240787365528
0.01376363775082017
0.013092240787365528
0.011749446860456245
0.011413748378728923
0.010406652933546959
0.010406652933546959
0.010406652933546959
0.008392462043183033
0.0050354772259098195
0.0016784924086366065
-0.0010070954451819635
-0.0016784924086366065
-0.0016784924086366065
-0.0010070954451819635
-0.0003356984817273213
0.0010070954451819635
0.0023498893720912484
0.004364080262455177
0.006378271152819104
0.009063859006637675
0.012420843823910887
0.013092240787365528
0.011749446860456245
0.011749446860456245
0.010406652933546959
0.010406652933546959
0.011078049897001601
0.011749446860456245
0.009063859006637675
0.0050354772259098195
0.002014190890363927
-0.0003356984817273213
-0.0016784924086366065
-0.0016784924086366065
-0.0003356984817273213
0.0003356984817273213
0.0016784924086366065
0.0030212863355458916
0.0050354772259098195
0.007721065079728388
0.010406652933546959
0.011749446860456245
0.013092240787365528
0.013092240787365528
0.012420843823910887
0.011749446860456245
0.011749446860456245
0.011749446860456245
0.012420843823910887
0.010406652933546959
0.006378271152819104
0.0023498893720912484
-0.0003356984817273213
-0.0030212863355458916
-0.0016784924086366065
-0.0010070954451819635
-0.0003356984817273213
0.0003356984817273213
0.0013427939269092851
0.004364080262455177
0.007721065079728388
0.010406652933546959
0.011749446860456245
0.012420843823910887
0.013092240787365528
0.012420843823910887
0.011749446860456245
0.010406652933546959
0.011749446860456245
0.012420843823910887
0.011749446860456245
0.006378271152819104
0.0010070954451819635
-0.0016784924086366065
-0.0030212863355458916
-0.003692683299000534
-0.0023498893720912484
-0.0010070954451819635
0.0003356984817273213
0.0010070954451819635
0.004364080262455177
0.007721065079728388
0.010406652933546959
0.011413748378728923
0.013092240787365528
0.013092240787365528
0.012420843823910887
0.011749446860456245
0.011078049897001601
0.011749446860456245
0.013092240787365528
0.013092240787365528
0.008392462043183033
0.0023498893720912484
-0.0016784924086366065
-0.003692683299000534
-0.003692683299000534
-0.0030212863355458916
-0.0006713969634546426
-0.0003356984817273213
0.0013427939269092851
0.0050354772259098195
0.008728160524910353
0.010406652933546959
0.011749446860456245
0.013092240787365528
0.013092240787365528
0.013092240787365528
0.012756542305638208
0.011749446860456245
0.012756542305638208
0.014435034714274816
0.01376363775082017
0.010406652933546959
0.003356984817273213
-0.0016784924086366065
-0.003692683299000534
-0.004364080262455177
-0.0030212863355458916
-0.0016784924086366065
-0.0006713969634546426
0.0003356984817273213
0.003692683299000534
0.007721065079728388
0.009735255970092317
0.010406652933546959
0.011749446860456245
0.012420843823910887
0.01376363775082017
0.012756542305638208
0.012420843823910887
0.013427939269092852
0.0157778286411841
0.0157778286411841
0.011413748378728923
0.003692683299000534
-0.0016784924086366065
-0.004364080262455177
-0.005706874189364461
-0.004364080262455177
-0.0030212863355458916
-0.0023498893720912484
-0.0006713969634546426
0.0030212863355458916
0.007721065079728388
0.009063859006637675
0.009063859006637675
0.012756542305638208
0.013092240787365528
0.013092240787365528
0.012756542305638208
0.011749446860456245
0.013092240787365528
0.0157778286411841
0.0157778286411841
0.011749446860456245
0.003692683299000534
-0.0023498893720912484
-0.005706874189364461
-0.005706874189364461
-0.0050354772259098195
-0.003692683299000534
-0.0030212863355458916
-0.0006713969634546426
0.0030212863355458916
0.007385366598001068
0.008392462043183033
0.007721065079728388
0.011749446860456245
0.013092240787365528
0.014435034714274816
0.013092240787365528
0.012420843823910887
0.014099336232547494
0.016449225604638743
0.017120622568093383
0.013092240787365528
0.004699778744182497
-0.002014190890363927
-0.004699778744182497
-0.006378271152819104
-0.005706874189364461
-0.003692683299000534
-0.0030212863355458916
-0.0006713969634546426
0.0023498893720912484
0.007721065079728388
0.007721065079728388
0.008392462043183033
0.011749446860456245
0.013092240787365528
0.014435034714274816
0.013092240787365528
0.013092240787365528
0.015106431677729458
0.017792019531548024
0.01846341649500267
0.014435034714274816
0.0050354772259098195
-0.0030212863355458916
-0.005706874189364461
-0.007049668116273747
-0.005706874189364461
-0.004364080262455177
-0.003692683299000534
-0.0016784924086366065
0.0023498893720912484
0.007721065079728388
0.007049668116273747
0.007721065079728388
0.011078049897001601
0.013092240787365528
0.013092240787365528
0.013092240787365528
0.013092240787365528
0.0157778286411841
0.01846341649500267
0.01913481345845731
0.0157778286411841
0.006378271152819104
-0.0016784924086366065
-0.005706874189364461
-0.007385366598001068
-0.006378271152819104
-0.005706874189364461
-0.003692683299000534
-0.0016784924086366065
0.003692683299000534
0.007721065079728388
0.007049668116273747
0.007721065079728388
0.012420843823910887
0.01376363775082017
0.014435034714274816
0.01376363775082017
0.013092240787365528
0.0157778286411841
0.019806210421911954
0.019806210421911954
0.016449225604638743
0.007049668116273747
-0.0016784924086366065
-0.005706874189364461
-0.007385366598001068
-0.007049668116273747
-0.006378271152819104
-0.004364080262455177
-0.0030212863355458916
0.002014190890363927
0.006378271152819104
0.004699778744182497
0.007721065079728388
0.011749446860456245
0.013092240787365528
0.014099336232547494
0.014099336232547494
0.013092240787365528
0.0157778286411841
0.019806210421911954
0.019806210421911954
0.016784924086366067
0.007721065079728388
-0.0030212863355458916
-0.007049668116273747
-0.008392462043183033
-0.008392462043183033
-0.006378271152819104
-0.005706874189364461
-0.0030212863355458916
0.0023498893720912484
0.006378271152819104
0.0050354772259098195
0.007049668116273747
0.011413748378728923
0.013092240787365528
0.01376363775082017
0.014435034714274816
0.013092240787365528
0.0157778286411841
0.019806210421911954
0.020477607385366595
0.01812771801327535
0.007385366598001068
-0.0030212863355458916
-0.007385366598001068
-0.008392462043183033
-0.007049668116273747
-0.006378271152819104
-0.004364080262455177
-0.002014190890363927
0.0030212863355458916
0.006042572671091783
0.004364080262455177
0.007721065079728388
0.011749446860456245
0.013092240787365528
0.014435034714274816
0.014770733196002136
0.014435034714274816
0.016449225604638743
0.020477607385366595
0.021820401312275882
0.01846341649500267
0.008392462043183033
-0.0023498893720912484
-0.007049668116273747
-0.008728160524910353
-0.008728160524910353
-0.007049668116273747
-0.005706874189364461
-0.0030212863355458916
0.0030212863355458916
0.0050354772259098195
0.003692683299000534
0.006378271152819104
0.011413748378728923
0.013092240787365528
0.015106431677729458
0.014435034714274816
0.015106431677729458
0.01846341649500267
0.022491798275730522
0.022491798275730522
0.019806210421911954
0.010406652933546959
-0.002014190890363927
-0.007049668116273747
-0.008392462043183033
-0.009063859006637675
-0.007049668116273747
-0.006378271152819104
-0.0030212863355458916
0.0023498893720912484
0.0050354772259098195
0.0023498893720912484
0.006378271152819104
0.011413748378728923
0.014435034714274816
0.0157778286411841
0.0157778286411841
0.015442130159456776
0.01846341649500267
0.023163195239185166
0.023834592202639806
0.020477607385366595
0.011078049897001601
-0.0016784924086366065
-0.009735255970092317
-0.011078049897001601
-0.010406652933546959
-0.009063859006637675
-0.007385366598001068
-0.004364080262455177
0.0023498893720912484
0.003692683299000534
0.0010070954451819635
0.0050354772259098195
0.011413748378728923
0.014435034714274816
0.016449225604638743
0.017120622568093383
0.016449225604638743
0.020813305867093918
0.02584878309300374
0.02652018005645838
0.023834592202639806
0.013092240787365528
-0.0016784924086366065
-0.009735255970092317
-0.012420843823910887
-0.011749446860456245
-0.010406652933546959
-0.009063859006637675
-0.005706874189364461
0.0010070954451819635
0.0016784924086366065
-0.0010070954451819635
0.003692683299000534
0.011078049897001601
0.015106431677729458
0.0157778286411841
0.017120622568093383
0.017456321049820707
0.023834592202639806
0.02853437094682231
0.029205767910276948
0.02652018005645838
0.016449225604638743
-0.0016784924086366065
-0.011078049897001601
-0.015106431677729458
-0.015106431677729458
-0.012420843823910887
-0.011078049897001601
-0.007049668116273747
0.0003356984817273213
-0.0010070954451819635
-0.003356984817273213
0.0023498893720912484
0.011413748378728923
0.0157778286411841
0.017792019531548024
0.01846341649500267
0.01846341649500267
0.025177386129549097
0.032898451209277486
0.03390554665445944
0.029205767910276948
0.017792019531548024
-0.0016784924086366065
-0.01376363775082017
-0.017120622568093383
-0.017120622568093383
-0.016449225604638743
-0.01376363775082017
-0.009735255970092317
-0.0016784924086366065
-0.0030212863355458916
-0.006713969634546426
0.0006713969634546426
0.010406652933546959
0.0157778286411841
0.01846341649500267
0.01846341649500267
0.01913481345845731
0.02719157701991302
0.035248340581368734
0.03659113450827802
0.03121995880064088
0.017792019531548024
-0.005706874189364461
-0.01913481345845731
-0.021820401312275882
-0.020813305867093918
-0.01913481345845731
-0.017120622568093383
-0.011749446860456245
-0.0010070954451819635
0.0003356984817273213
-0.0030212863355458916
0.003692683299000534
0.014435034714274816
0.020477607385366595
0.022491798275730522
0.023163195239185166
0.023834592202639806
0.03189135576409552
0.03994811932555123
0.042298008697642483
0.03390554665445944
0.008392462043183033
-0.016784924086366067
-0.02853437094682231
-0.03256275272755016
-0.03054856183718624
-0.02719157701991302
-0.022491798275730522
-0.01376363775082017
0.0023498893720912484
0.012420843823910887
0.007385366598001068
0.014435034714274816
0.024841687647821773
0.02887006942854963
0.029877164873731592
0.029205767910276948
0.02853437094682231
0.03457694361791409
0.041962310215915156
0.042298008697642483
0.027862973983367664
-0.006042572671091783
-0.030212863355458915
-0.04061951628900587
-0.0426337071793698
-0.03860532539864195
-0.032898451209277486
-0.02584878309300374
-0.01376363775082017
0.007385366598001068
0.025177386129549097
0.022156099794003202
0.02584878309300374
0.033234149691004806
0.035919737544823374
0.03457694361791409
0.033234149691004806
0.03189135576409552
0.035919737544823374
0.041962310215915156
0.03927672236209659
0.011749446860456245
-0.023834592202639806
-0.03894102388036927
3.1619439993896385
10.527168688487068
10.97297627222095
10.97431906614786
9.894712748912795
-7.438071259632257
-10.982711528191043
-9.517723353933011
-8.794964522774091
-7.942626077668422
-6.915724422064545
-6.059693293659875
-5.23588921950103
-4.465796902418554
-3.758480201419088
-3.1025253681239033
-2.5053177691309982
-1.9849851224536503
-1.5351491569390403
0.8630807965209428
10.293522545204853
10.97297627222095
10.97566186007477
10.974990463111313
10.974990463111313
10.97566186007477
-2.4781261921110853
-10.980697337300677
-10.987075608453498
-10.988754100862135
-10.98942549782559
-10.98908979934386
-10.98908979934386
-10.989761196307317
-10.989761196307317
-10.989761196307317
-9.367330434119173
-7.2225528343633165
-5.325856412603952
-3.419760433356222
7.4441138323033496
10.971633478294041
10.97431906614786
10.97566186007477
10.97431906614786
10.97566186007477
10.97566186007477
-1.3290302891584649
-10.979690241855495
-10.987075608453498
-10.988418402380407
-10.98908979934386
-10.98942549782559
-10.98942549782559
-10.98908979934386
-10.98942549782559
-9.023910887312121
-6.537056534676126
-4.325810635538261
-2.3663385976958873
0.3890745403219653
10.903150988021668
10.97297627222095
10.97431906614786
10.974990463111313
10.97431906614786
10.97566186007477
10.97566186007477
7.8751506828412285
-10.88670176241703
-10.986068513008314
-10.98808270389868
-10.988418402380407
-10.98908979934386
-10.98908979934386
-10.98942549782559
-10.989761196307317
-8.886945906767375
-6.286289768825818
-3.949492637521935
-1.2491340505073625
10.622507057297627
10.971633478294041
10.97431906614786
10.974990463111313
10.97566186007477
10.97431906614786
10.97566186007477
10.974990463111313
10.974990463111313
-8.00170901045243
-10.984054322117952
-10.98808270389868
-10.988418402380407
-10.98908979934386
-10.989761196307317
-10.989761196307317
-10.98942549782559
-10.98942549782559
-10.989761196307317
-7.17824063477531
9.976623178454261
10.971633478294041
10.97297627222095
10.974990463111313
10.97566186007477
10.97566186007477
10.97431906614786
10.97431906614786
10.97566186007477
10.97566186007477
-6.646829938200962
-10.983382925154496
-10.987411306935224
-10.98908979934386
-10.98908979934386
-10.98942549782559
-10.98908979934386
-10.989761196307317
-10.98942549782559
-10.989761196307317
6.616281376363775
10.970290684367132
10.97297627222095
10.97431906614786
10.97431906614786
10.974990463111313
10.97431906614786
10.97431906614786
10.97431906614786
10.97566186007477
10.97566186007477
-7.867093919279774
-10.983382925154496
-10.987747005416953
-10.988754100862135
-10.98942549782559
-10.98942549782559
-10.989761196307317
-10.989761196307317
-10.98942549782559
-10.977676050965131
6.902967879758907
10.971633478294041
10.97431906614786
10.97431906614786
10.97431906614786
10.974990463111313
10.974990463111313
10.97431906614786
10.97431906614786
10.97566186007477
9.54692912184329
-8.325658045319296
-10.983718623636225
-10.987411306935224
-10.988418402380407
-10.98908979934386
-10.98942549782559
-10.98942549782559
-10.989761196307317
-10.98942549782559
-10.862867170214388
6.067750057221332
10.970290684367132
10.97431906614786
10.97431906614786
10.974990463111313
10.974990463111313
10.97431906614786
10.97431906614786
10.97431906614786
10.97566186007477
7.924162661173418
-8.372655832761119
-10.983718623636225
-10.987747005416953
-10.988754100862135
-10.98908979934386
-10.989761196307317
-10.98942549782559
-10.98942549782559
-10.98942549782559
-9.907133592736706
5.986846723125048
10.969619287403678
10.97297627222095
10.97431906614786
10.97431906614786
10.974990463111313
10.97431906614786
10.97431906614786
10.97431906614786
10.97431906614786
9.20720225833524
-5.465506981002517
-10.981033035782406
-10.987411306935224
-10.988754100862135
-10.98942549782559
-10.98908979934386
-10.98942549782559
-10.98942549782559
-10.98942549782559
-8.911116197451742
3.809170672159915
10.967605096513314
10.972304875257496
10.97297627222095
10.97297627222095
10.97431906614786
10.97431906614786
10.97566186007477
10.97431906614786
10.974990463111313
8.295445181963835
-4.864606698710612
-10.977676050965131
-10.987075608453498
-10.988418402380407
-10.98908979934386
-10.98908979934386
-10.988754100862135
-10.93537804226749
-7.970824750133517
-5.246631570916303
0.19034103913939115
10.911207751583124
10.971633478294041
10.97297627222095
10.97297627222095
10.97297627222095
10.974990463111313
10.97431906614786
10.97431906614786
10.97431906614786
4.454383154039825
-6.1029983978027005
-10.979354543373768
-10.987075608453498
-10.988418402380407
-10.988418402380407
-9.628503852903028
-7.228595407034408
-5.054612039368277
-3.1344167238879987
-1.421011673151751
0.25445944914930957
6.497108415350576
10.968947890440223
10.97297627222095
10.97297627222095
10.97297627222095
10.97431906614786
10.974990463111313
10.97431906614786
8.444495307850767
0.46359960326543065
-8.11584649423972
-10.981368734264134
-9.59191271839475
-7.527031357289996
-5.923735408560311
-4.333867399099717
-2.9350118257419697
-1.6935988403143358
-0.5851224536507209
0.3877317463950561
1.2357061112382697
2.4556343938353553
8.166536964980544
10.970290684367132
10.97297627222095
10.97431906614786
10.97431906614786
10.610421911955443
8.617715724422064
4.64304570077058
-2.397222858014801
-6.338994430457007
-5.0653543907835505
-3.8554970626382854
-2.9961089494163424
-2.0937514305333025
-1.3122453650720987
-0.620706492713817
-0.0030212863355458916
0.538124666208896
1.0067597467002365
1.409597924773022
1.7533531700617988
2.5617151140611885
5.963683527885863
8.072541390096895
8.040314335851072
7.038590066376744
5.856931410696575
4.422156099794003
1.4270542458228426
-1.7338826581216145
-1.298817425803006
-0.7294728007934691
-0.4394293125810635
-0.07956054016937514
0.21853971160448613
0.47602044708934155
0.7046311131456473
0.900679026474403
1.0685282673380636
1.20683604180972
1.3203021286335546
1.4122835126268405
1.484794384679942
1.5378347447928586
1.5828183413443198
1.6284733348592355
1.6325017166399636
1.6298161287861448
1.6224307621881437
1.6110170138094146
1.5975890745403218
1.570733196002136
1.5411917296101318
1.5049362935835813
1.4633096818493931
1.4176546883344776
1.3693141069657433
1.3189593347066453
1.2679331654840924
1.2155642023346303
1.1625238422217135
1.1081406881818874
1.0551003280689708
1.0040741588464177
0.9584191653315022
0.9154497596704052
0.8724803540093079
0.8335393301289387
0.7956054016937515
0.759685664148928
0.7267872129396507
0.6952315556572822
0.6697184710460059
0.6442053864347295
0.6220492866407263
0.5972075989929045
0.5716945143816281
0.5481956206607157
0.5253681239032578
0.5042191195544365
0.48374151216906996
0.462928206301976
0.4424505989166094
0.42197299153124274
0.4051880674448768
0.3917601281757839
0.38101777676050963
0.37262531471732663
0.36423285267414357
0.3581902800030518
0.35147631036850535
0.34744792858777757
0.34543373769741353
0.34341954680704967
0.34341954680704967
0.3424124513618677
0.3400625619897764
0.3350270847638666
0.32999160753795675
0.32394903486686505
0.3165636682688639
0.3111924925612268
0.3031357289997711
0.2923933775844968
0.2826581216144045
0.27493705653467615
0.269565880827039
0.2655374990463111
0.2628519111924925
0.26150911726558324
0.26150911726558324
0.26016632333867395
0.26150911726558324
0.2621805142290379
0.2648661020828565
0.2678873884184023
0.27090867475394825
0.27090867475394825
0.2682230869001297
0.2628519111924925
0.2588235294117647
0.25345235370412755
0.24740978103303574
0.23868162050812544
0.22928206301976042
0.2178683146410315
0.20914015411612116
0.2024261844815747
0.1990691996643015
0.1977264057373922
0.19638361181048294
0.19705500877393756
0.19571221484702828
0.19705500877393756
0.19940489814602883
0.20309758144502937
0.2064545662623026
0.21115434500648506
0.2118257419699397
0.20914015411612116
0.20611886778057525
0.20108339055466543
0.19504081788357364
0.18899824521248187
0.1816128786144808
0.17154192416266117
0.16079957274738685
0.15140001525902191
0.14468604562447548
0.1420004577706569
0.1406576638437476
0.1406576638437476
0.14132906080720226
0.1420004577706569
0.14300755321583886
0.14670023651483938
0.15106431677729457
0.15677119096665904
0.16147096971084152
0.1641565575646601
0.16214236667429618
0.15878538185702296
0.15542839703974973
0.14972152285038529
0.14401464866102082
0.13662928206301975
0.12588693064774548
0.11514457923247119
0.1057450217441062
0.09903105210955977
0.0963454642557412
0.09701686121919585
0.09768825818265049
0.09903105210955977
0.10037384603646905
0.10171663996337835
0.1057450217441062
0.11212329289692531
0.11783016708628975
0.12420843823910888
0.12722972457465478
0.12588693064774548
0.1232013427939269
0.11917296101319905
0.11447318226901655
0.10910200656137943
0.10238803692683297
0.09231708247501334
0.08291752498664834
0.07351796749828336
0.06915388723582817
0.06781109330891888
0.06546120393682765
0.06411841000991834
0.06546120393682765
0.06881818875410085
0.07620355535210192
0.08157473105973906
0.08627450980392155
0.09231708247501334
0.09835965514610515
0.10171663996337835
0.09903105210955977
0.09701686121919585
0.0946669718471046
0.09063859006637676
0.08627450980392155
0.0788891432059205
0.07016098268101013
0.061432822156099784
0.05471885252155337
0.049347676813916226
0.044647898069733724
0.06277561608300908
0.4877698939497978
0.8946364538033112
0.49314106965743487
-0.2574807354848554
-0.22458228427557791
-0.16281376363775082
-0.15207141222247655
-0.11783016708628975
-0.09198138399328602
-0.07284657053482871
-0.055390249485008015
-0.03961242084382391
-0.02719157701991302
-0.016449225604638743
-0.007049668116273747
-0.0016784924086366065
0.0023498893720912484
0.005706874189364461
0.009063859006637675
0.5656519417105363
2.786633096818494
3.8440833142595556
3.660120546272984
2.695994506752117
-0.40988784618905927
-2.614755474174105
-2.1488059815365834
-1.8809185931181807
-1.7097123674372472
-1.480766002899214
-1.2921034561684595
-1.1155260547798886
-0.9510337987335012
-0.8006408789196613
-0.6640115968566415
-0.5404745555809872
-0.4307011520561531
-0.33267719539177537
-0.24203860532539861
1.2545052262149996
5.483634699015792
7.65090409704738
7.4293430991073475
6.501472495613031
5.145250629434654
1.3713282978561074
-4.907576104371709
-6.518928816662851
-5.381582360570687
-4.821972991531243
-4.254306858930342
-3.6728770885786215
-3.1612726024261844
-2.6839093614099334
-2.2454871442740516
-1.8473487449454489
-1.486808575570306
-1.165209430075532
-0.8758373388265811
0.0775463492790112
5.176806286717021
9.354909590295263
10.078675516899366
9.302540627145799
7.943633173113604
6.130861371786068
2.1991607537956814
-4.876020447089341
-9.235400930800335
-8.18197909514
-7.024826428625924
-6.209414816510261
-5.315449759670405
-4.5134660868238345
-3.7850003814755473
-3.116289005874723
-2.5127031357289997
-1.9702143892576487
-1.4861371786068511
-1.0537575341420613
0.3581902800030518
5.6917677576867325
9.183031967650875
9.550957503624018
8.617715724422064
7.1554131380178525
5.369161516746776
1.5291065842679483
-4.992172121766995
-8.018158236057069
-6.745189593347066
-5.775020981155107
-5.004257267109177
-4.192538338292516
-3.4808575570305944
-2.8363164721141376
-2.250858319981689
-1.7264972915236132
-1.2598764019226367
-0.8462958724345769
-0.48105592431525135
-0.04766918440527961
2.662088960097658
5.968383306630044
6.743175402456702
6.140260929274433
5.127794308384833
3.677576867322805
0.15207141222247655
-3.86355382619974
-3.731288624399176
-2.944411383230335
-2.549629968719005
-2.0830090791180282
-1.6694285496299683
-1.3082169832913708
-0.9792324711985962
-0.686503395132372
-0.42868696116578925
-0.20376897840848401
-0.009735255970092317
0.15744258793011368
0.30045014114595253
0.4333867399099718
1.3129167620355535
2.579171435111009
2.607370107576104
2.1038223849851225
1.214221408407721
-0.24338139925230795
-0.3870603494316014
-0.15878538185702296
-0.09164568551155872
0.0050354772259098195
0.08560311284046693
0.14938582436865797
0.20376897840848401
0.24673838406958112
0.2816510261692225
0.3091783016708629
0.32730601968413825
0.3380483710994125
0.3444266422522316
0.34610513466086823
0.34476234073395895
0.3393911650263218
0.33200579842832073
0.32394903486686505
0.31589227130540926
0.3068284122987716
0.2984359502555886
0.28836499580376895
0.27359426260776687
0.26016632333867395
0.24673838406958112
0.2306248569466697
0.21283283741512166
0.1940337224383917
0.17557030594338902
0.157778286411841
0.13998626688029298
0.12185854886701762
0.10272373540856031
0.08426031891355765
0.0694895857175555
0.05740444037537193
0.04599069199664301
0.03457694361791409
0.02652018005645838
0.019806210421911954
0.014435034714274816
0.009063859006637675
0.0050354772259098195
0.0023498893720912484
0.0010070954451819635
0.0
-0.0023498893720912484
-0.005706874189364461
-0.009063859006637675
-0.01376363775082017
-0.017120622568093383
-0.020477607385366595
-0.02584878309300374
-0.03121995880064088
-0.035919737544823374
-0.03927672236209659
-0.03927672236209659
-0.03927672236209659
-0.03826962691691462
-0.03659113450827802
-0.035248340581368734
-0.033234149691004806
-0.03121995880064088
-0.02719157701991302
-0.023163195239185166
-0.01812771801327535
-0.01376363775082017
-0.012420843823910887
-0.011078049897001601
-0.011078049897001601
-0.011749446860456245
-0.011749446860456245
-0.013092240787365528
-0.0157778286411841
-0.019470511940184634
-0.021820401312275882
-0.023834592202639806
-0.023834592202639806
-0.021820401312275882
-0.020477607385366595
-0.01812771801327535
-0.016449225604638743
-0.014099336232547494
-0.012420843823910887
-0.009063859006637675
-0.0050354772259098195
-0.0003356984817273213
0.0030212863355458916
0.004364080262455177
0.004364080262455177
0.004364080262455177
0.003692683299000534
0.0023498893720912484
0.0006713969634546426
-0.0030212863355458916
-0.007049668116273747
-0.011078049897001601
-0.01376363775082017
-0.012756542305638208
-0.012420843823910887
-0.011078049897001601
-0.009735255970092317
-0.007721065079728388
-0.007049668116273747
-0.0050354772259098195
-0.0016784924086366065
0.0023498893720912484
0.006378271152819104
0.010406652933546959
0.011078049897001601
0.010406652933546959
0.009063859006637675
0.007721065079728388
0.006378271152819104
0.003692683299000534
0.0010070954451819635
-0.0030212863355458916
-0.008392462043183033
-0.011078049897001601
-0.011749446860456245
-0.010406652933546959
-0.009735255970092317
-0.008392462043183033
-0.007049668116273747
-0.004364080262455177
-0.0030212863355458916
0.0010070954451819635
0.0050354772259098195
0.009063859006637675
0.012756542305638208
0.01376363775082017
0.013092240787365528
0.012420843823910887
0.010406652933546959
0.009063859006637675
0.006378271152819104
0.0023498893720912484
-0.0016784924086366065
-0.006042572671091783
-0.008728160524910353
-0.010406652933546959
-0.009063859006637675
-0.007721065079728388
-0.007049668116273747
-0.004699778744182497
-0.0030212863355458916
-0.0006713969634546426
0.0023498893720912484
0.007721065079728388
0.011749446860456245
0.0157778286411841
0.016784924086366067
0.0157778286411841
0.015106431677729458
0.013092240787365528
0.011749446860456245
0.009063859006637675
0.0050354772259098195
0.0
-0.0050354772259098195
-0.008392462043183033
-0.009735255970092317
-0.009063859006637675
-0.007385366598001068
-0.005706874189364461
-0.004364080262455177
-0.0016784924086366065
0.0006713969634546426
0.004699778744182497
0.009063859006637675
0.01376363775082017
0.01812771801327535
0.019806210421911954
0.019806210421911954
0.01846341649500267
0.016449225604638743
0.014435034714274816
0.011078049897001601
0.007721065079728388
0.0016784924086366065
-0.004364080262455177
-0.008392462043183033
-0.009735255970092317
-0.009063859006637675
-0.008392462043183033
-0.005706874189364461
-0.003692683299000534
-0.0016784924086366065
0.0016784924086366065
0.0050354772259098195
0.011413748378728923
0.017120622568093383
0.021149004348821242
0.023163195239185166
0.021820401312275882
0.019806210421911954
0.01913481345845731
0.017120622568093383
0.014435034714274816
0.009063859006637675
0.0023498893720912484
-0.004364080262455177
-0.008392462043183033
-0.009735255970092317
-0.009735255970092317
-0.007049668116273747
-0.005706874189364461
-0.003692683299000534
-0.0013427939269092851
0.0023498893720912484
0.007721065079728388
0.013092240787365528
0.01846341649500267
0.023834592202639806
0.02584878309300374
0.025177386129549097
0.023163195239185166
0.021149004348821242
0.01846341649500267
0.014435034714274816
0.009063859006637675
0.0023498893720912484
-0.004699778744182497
-0.009735255970092317
-0.011749446860456245
-0.012420843823910887
-0.011078049897001601
-0.008392462043183033
-0.005706874189364461
-0.0030212863355458916
0.0006713969634546426
0.006042572671091783
0.011413748378728923
0.017792019531548024
0.02349889372091249
0.02584878309300374
0.025177386129549097
0.022491798275730522
0.019806210421911954
0.017120622568093383
0.013092240787365528
0.007721065079728388
-0.0003356984817273213
-0.008056763561455708
-0.01376363775082017
-0.0157778286411841
-0.016449225604638743
-0.014435034714274816
-0.012420843823910887
-0.009735255970092317
-0.007049668116273747
-0.0030212863355458916
0.0023498893720912484
0.008728160524910353
0.0157778286411841
0.022491798275730522
0.025177386129549097
0.023834592202639806
0.021820401312275882
0.019806210421911954
0.017120622568093383
0.014435034714274816
0.008392462043183033
-0.0003356984817273213
-0.007049668116273747
-0.012756542305638208
-0.015106431677729458
-0.014435034714274816
-0.011749446860456245
-0.008392462043183033
-0.006042572671091783
-0.003692683299000534
0.0016784924086366065
0.007721065079728388
0.014435034714274816
0.021820401312275882
0.02887006942854963
0.0315556572823682
0.03189135576409552
0.030212863355458915
0.02752727550164034
0.024505989166094453
0.021149004348821242
0.014435034714274816
0.006042572671091783
-0.002014190890363927
-0.008392462043183033
-0.010406652933546959
-0.011078049897001601
-0.011078049897001601
-0.010406652933546959
-0.007385366598001068
-0.0023498893720912484
0.0050354772259098195
0.010406652933546959
0.017120622568093383
0.023834592202639806
0.03054856183718624
0.032898451209277486
0.03256275272755016
0.030212863355458915
0.02652018005645838
0.023834592202639806
0.019806210421911954
0.013092240787365528
0.004364080262455177
-0.0030212863355458916
-0.009735255970092317
-0.012420843823910887
-0.01376363775082017
-0.017120622568093383
-0.016449225604638743
-0.012420843823910887
-0.007049668116273747
0.0030212863355458916
0.010406652933546959
0.0157778286411841
0.021149004348821242
0.02719157701991302
0.03054856183718624
0.03054856183718624
0.02719157701991302
0.024505989166094453
0.022156099794003202
0.017792019531548024
0.011749446860456245
0.003692683299000534
-0.004364080262455177
-0.009735255970092317
-0.012420843823910887
-0.01812771801327535
0.022491798275730522
0.4374151216906996
0.6912031738765545
0.18899824521248187
-0.2910505836575875
-0.2017547875181201
-0.1725490196078431
-0.15744258793011368
-0.1279011215381094
-0.10843060959792476
-0.09164568551155872
-0.07821774624246586
-0.06613260090028229
-0.05673304341191729
-0.04666208896009766
-0.04129091325246051
-0.0379339284351873
-0.03659113450827802
-0.03390554665445944
-0.03121995880064088
0.2682230869001297
1.8312352178225377
2.548287174792096
2.3025558861676965
1.2410772869459066
-1.147417410543984
-1.5076218814373998
-1.1739375906004423
-1.0937056534676126
-0.9597619592584115
-0.8342107270923934
-0.7267872129396507
-0.6260776684214542
-0.5337605859464407
-0.4495002670328832
-0.37363241016250853
-0.3064927138170443
-0.24740978103303574
-0.19571221484702828
-0.14670023651483938
-0.08896009765774013
1.1544670786602578
3.1975280384527354
3.4264744029907686
2.9202410925459676
1.6700999465934234
-1.407583733882658
-2.2676432440680556
-1.7607385366598
-1.5985961699855036
-1.4028839551384755
-1.200793469138628
-1.0316014343480582
-0.8721446555275806
-0.7281300068665598
-0.5965362020294499
-0.4783703364614328
-0.37363241016250853
-0.2823224231326772
-0.2004119935912108
-0.12655832761120012
-0.064789806973373
0.5690089265278097
2.05279621576257
2.2891279468986037
1.8110933089188983
0.6912031738765545
-1.0101167315175097
-1.0255588616769664
-0.7845273517967497
-0.7012741283283741
-0.5763942931258106
-0.46897077897306777
-0.37799649042496375
-0.29306477454795143
-0.21988250553139543
-0.1534142061493858
-0.09567406729228656
-0.04666208896009766
-0.006378271152819104
0.02853437094682231
0.05941863126573587
0.08560311284046693
0.1057450217441062
0.12521553368429084
0.14267185473411154
0.15811398489356832
0.17154192416266117
0.184969863431754
0.19302662699320974
0.19705500877393756
0.20108339055466543
0.20108339055466543
0.19839780270084686
0.19302662699320974
0.184969863431754
0.17590600442511634
0.16482795452811475
0.15475700007629511
0.14300755321583886
0.12857251850156404
0.11447318226901655
0.10305943389028763
0.09365987640192262
0.08426031891355765
0.07620355535210192
0.0694895857175555
0.06411841000991834
0.05874723430228122
0.05572594796673533
0.051361867704280154
0.049011978332188906
0.0473334859235523
0.04531929503318838
0.042298008697642483
0.037262531471732654
0.03189135576409552
0.02752727550164034
0.021149004348821242
0.016449225604638743
0.010406652933546959
0.0023498893720912484
-0.003356984817273213
-0.008392462043183033
-0.011078049897001601
-0.012420843823910887
-0.01376363775082017
-0.014435034714274816
-0.01376363775082017
-0.011078049897001601
-0.007049668116273747
-0.004364080262455177
-0.0016784924086366065
0.0023498893720912484
0.0050354772259098195
0.006378271152819104
0.006378271152819104
0.0050354772259098195
0.004364080262455177
0.003692683299000534
0.0010070954451819635
-0.0023498893720912484
-0.005706874189364461
-0.008728160524910353
-0.010406652933546959
-0.011078049897001601
-0.01376363775082017
-0.01376363775082017
-0.011749446860456245
-0.008392462043183033
-0.004699778744182497
0.0006713969634546426
0.003692683299000534
0.006378271152819104
0.010070954451819639
0.01376363775082017
0.014435034714274816
0.013092240787365528
0.013092240787365528
0.011749446860456245
0.010070954451819639
0.007721065079728388
0.0050354772259098195
0.0006713969634546426
-0.0030212863355458916
-0.004364080262455177
-0.0050354772259098195
-0.005706874189364461
-0.005706874189364461
-0.004364080262455177
-0.0030212863355458916
-0.0003356984817273213
0.0023498893720912484
0.004699778744182497
0.007721065079728388
0.010406652933546959
0.01376363775082017
0.014435034714274816
0.014435034714274816
0.01376363775082017
0.012420843823910887
0.010406652933546959
0.009063859006637675
0.0050354772259098195
0.002014190890363927
-0.0016784924086366065
-0.003692683299000534
-0.003692683299000534
-0.0030212863355458916
-0.0030212863355458916
-0.0010070954451819635
-0.0003356984817273213
0.0010070954451819635
0.0016784924086366065
0.003692683299000534
0.007049668116273747
0.010406652933546959
0.013092240787365528
0.01376363775082017
0.01376363775082017
0.012756542305638208
0.011749446860456245
0.010406652933546959
0.009063859006637675
0.005706874189364461
0.0023498893720912484
-0.0006713969634546426
-0.0030212863355458916
-0.0030212863355458916
-0.0030212863355458916
-0.0016784924086366065
-0.0010070954451819635
0.0010070954451819635
0.0023498893720912484
0.003692683299000534
0.005706874189364461
0.007721065079728388
0.011413748378728923
0.014435034714274816
0.015106431677729458
0.014435034714274816
0.01376363775082017
0.013092240787365528
0.011413748378728923
0.010406652933546959
0.006378271152819104
0.003356984817273213
-0.0003356984817273213
-0.002014190890363927
-0.0030212863355458916
-0.0016784924086366065
-0.0003356984817273213
-0.0003356984817273213
0.0010070954451819635
0.0023498893720912484
0.004364080262455177
0.007049668116273747
0.009399557488364994
0.011749446860456245
0.014435034714274816
0.015106431677729458
0.015106431677729458
0.013092240787365528
0.012420843823910887
0.011749446860456245
0.009063859006637675
0.006378271152819104
0.003692683299000534
0.0010070954451819635
-0.0016784924086366065
-0.0030212863355458916
-0.0016784924086366065
0.0003356984817273213
0.0003356984817273213
0.0010070954451819635
0.0023498893720912484
0.004364080262455177
0.007049668116273747
0.010406652933546959
0.013092240787365528
0.015442130159456776
0.015106431677729458
0.014435034714274816
0.013092240787365528
0.012420843823910887
0.011078049897001601
0.009063859006637675
0.006378271152819104
0.0023498893720912484
-0.0003356984817273213
-0.0016784924086366065
-0.0030212863355458916
-0.0016784924086366065
-0.0010070954451819635
0.0006713969634546426
0.0016784924086366065
0.0023498893720912484
0.0050354772259098195
0.007385366598001068
0.009735255970092317
0.013092240787365528
0.0157778286411841
0.0157778286411841
0.0157778286411841
0.014435034714274816
0.013092240787365528
0.011749446860456245
0.010406652933546959
0.007049668116273747
0.003356984817273213
-0.0003356984817273213
-0.0016784924086366065
-0.0023498893720912484
-0.0010070954451819635
-0.0003356984817273213
0.0006713969634546426
0.0010070954451819635
0.0023498893720912484
0.004364080262455177
0.007385366598001068
0.009735255970092317
0.012420843823910887
0.014435034714274816
0.015442130159456776
0.015106431677729458
0.013092240787365528
0.012420843823910887
0.011749446860456245
0.010406652933546959
0.006378271152819104
0.0030212863355458916
0.0010070954451819635
-0.002014190890363927
-0.0023498893720912484
-0.002014190890363927
-0.0003356984817273213
0.0010070954451819635
0.0016784924086366065
0.0030212863355458916
0.0050354772259098195
0.007721065079728388
0.011078049897001601
0.01376363775082017
0.0157778286411841
0.0157778286411841
0.016449225604638743
0.014435034714274816
0.013092240787365528
0.012420843823910887
0.009735255970092317
0.005706874189364461
0.0030212863355458916
-0.0003356984817273213
-0.0016784924086366065
-0.0023498893720912484
-0.0010070954451819635
-0.0003356984817273213
0.0006713969634546426
0.0016784924086366065
0.0030212863355458916
0.005706874189364461
0.007721065079728388
0.011413748378728923
0.014435034714274816
0.0157778286411841
0.017120622568093383
0.017120622568093383
0.014435034714274816
0.013092240787365528
0.013092240787365528
0.010406652933546959
0.006378271152819104
0.0023498893720912484
-0.0010070954451819635
-0.0030212863355458916
-0.003692683299000534
-0.0030212863355458916
-0.0016784924086366065
0.0003356984817273213
0.0003356984817273213
0.0016784924086366065
0.004364080262455177
0.007721065079728388
0.011078049897001601
0.014435034714274816
0.017120622568093383
0.017120622568093383
0.016449225604638743
0.015106431677729458
0.014435034714274816
0.012756542305638208
0.010406652933546959
0.007049668116273747
0.0023498893720912484
-0.0003356984817273213
-0.0030212863355458916
-0.004364080262455177
-0.004364080262455177
-0.0016784924086366065
-0.0006713969634546426
0.0010070954451819635
0.0023498893720912484
0.004364080262455177
0.008728160524910353
0.012420843823910887
0.015442130159456776
0.01846341649500267
0.01846341649500267
0.01812771801327535
0.017120622568093383
0.015106431677729458
0.013092240787365528
0.011749446860456245
0.007721065079728388
0.0023498893720912484
-0.0010070954451819635
-0.0030212863355458916
-0.004364080262455177
-0.003692683299000534
-0.0030212863355458916
-0.0010070954451819635
0.0006713969634546426
0.0023498893720912484
0.004364080262455177
0.007721065079728388
0.012420843823910887
0.016784924086366067
0.019806210421911954
0.019806210421911954
0.019806210421911954
0.01846341649500267
0.016449225604638743
0.014435034714274816
0.011749446860456245
0.007721065079728388
0.0016784924086366065
-0.0023498893720912484
-0.005706874189364461
-0.006042572671091783
-0.005706874189364461
-0.004364080262455177
-0.0023498893720912484
-0.0003356984817273213
0.0010070954451819635
0.0050354772259098195
0.008392462043183033
0.013092240787365528
0.017792019531548024
0.021149004348821242
0.021820401312275882
0.021149004348821242
0.020477607385366595
0.01812771801327535
0.0157778286411841
0.014099336232547494
0.008392462043183033
0.0016784924086366065
-0.0023498893720912484
-0.005706874189364461
-0.007049668116273747
-0.007049668116273747
-0.005706874189364461
-0.0030212863355458916
-0.0010070954451819635
0.0016784924086366065
0.004364080262455177
0.008728160524910353
0.014435034714274816
0.019806210421911954
0.023834592202639806
0.025177386129549097
0.023834592202639806
0.022491798275730522
0.020141908903639278
0.01812771801327535
0.014435034714274816
0.008728160524910353
0.0016784924086366065
-0.004364080262455177
-0.009063859006637675
-0.011078049897001601
-0.009735255970092317
-0.009063859006637675
-0.007049668116273747
-0.004699778744182497
-0.0030212863355458916
0.0010070954451819635
0.007385366598001068
0.013092240787365528
0.01913481345845731
0.023834592202639806
0.02584878309300374
0.024841687647821773
0.022491798275730522
0.019806210421911954
0.017792019531548024
0.013092240787365528
0.006378271152819104
-0.0016784924086366065
-0.009735255970092317
-0.015106431677729458
-0.017120622568093383
-0.016449225604638743
-0.014435034714274816
-0.012420843823910887
-0.009735255970092317
-0.007049668116273747
-0.0030212863355458916
0.004364080262455177
0.011749446860456245
0.01846341649500267
0.025177386129549097
0.02752727550164034
0.02652018005645838
0.025177386129549097
0.022156099794003202
0.01913481345845731
0.014435034714274816
0.007049668116273747
-0.0023498893720912484
-0.010406652933546959
-0.016449225604638743
-0.01913481345845731
-0.017792019531548024
-0.015106431677729458
-0.011078049897001601
-0.008392462043183033
-0.004364080262455177
0.0016784924086366065
0.009735255970092317
0.01846341649500267
0.02652018005645838
0.03390554665445944
0.03659113450827802
0.035919737544823374
0.033234149691004806
0.029205767910276948
0.02652018005645838
0.021149004348821242
0.012420843823910887
0.0023498893720912484
-0.008392462043183033
-0.015106431677729458
-0.01913481345845731
-0.017792019531548024
-0.015106431677729458
-0.012420843823910887
-0.008392462043183033
-0.005706874189364461
0.0006713969634546426
0.007721065079728388
0.017792019531548024
0.02652018005645838
0.035248340581368734
0.037262531471732654
0.035919737544823374
0.033234149691004806
0.029205767910276948
0.025177386129549097
0.019806210421911954
0.010406652933546959
-0.0010070954451819635
-0.012420843823910887
-0.019806210421911954
-0.023163195239185166
-0.023163195239185166
-0.020477607385366595
-0.017792019531548024
-0.013092240787365528
-0.008392462043183033
-0.0030212863355458916
0.0050354772259098195
0.015106431677729458
0.023834592202639806
0.03189135576409552
0.03558403906309605
0.03457694361791409
0.03189135576409552
0.02853437094682231
0.023834592202639806
0.01846341649500267
0.009735255970092317
-0.0010070954451819635
-0.011749446860456245
-0.01913481345845731
-0.022491798275730522
-0.023163195239185166
-0.019470511940184634
-0.016449225604638743
-0.011749446860456245
-0.007721065079728388
-0.0023498893720912484
0.0050354772259098195
0.014435034714274816
0.023163195239185166
0.03121995880064088
0.03457694361791409
0.03390554665445944
0.03189135576409552
0.02853437094682231
0.024505989166094453
0.01846341649500267
0.011078049897001601
0.0010070954451819635
-0.008392462043183033
-0.015106431677729458
-0.017792019531548024
-0.01846341649500267
-0.021820401312275882
-0.01812771801327535
-0.007721065079728388
-0.005706874189364461
-0.0003356984817273213
0.009735255970092317
0.016449225604638743
0.024505989166094453
0.03121995880064088
0.03457694361791409
0.033234149691004806
0.03054856183718624
0.027862973983367664
0.024505989166094453
0.019806210421911954
0.011749446860456245
0.0030212863355458916
-0.005706874189364461
-0.011749446860456245
1.066849774929427
5.215075913633936
7.370260166323339
6.983535515373465
5.985839627679865
3.8185702296482793
-2.65671778439002
-6.025787747005417
-4.9518883039597155
-4.418799114976729
-3.9958190280003056
-3.48891432059205
-3.054520485236896
-2.648325322346837
-2.26831464103151
-1.920531013962005
-1.6029602502479592
-1.3162737468528267
-1.058457312886244
-0.8261539635309376
-0.573708705271992
1.9141527428091858
5.989868009460593
6.8499275196459894
5.7736781872281995
4.405371175707637
1.8124361028458076
-3.488242923628595
-4.903547722590982
-3.8813458457312886
-3.437888151369497
-2.974624246585794
-2.504646372167544
-2.1038223849851225
-1.731532768749523
-1.3951628900587474
-1.0923628595407033
-0.8214541847867551
-0.583108262760357
-0.37363241016250853
-0.18966964217593651
-0.02719157701991302
0.11447318226901655
0.23599603265430688
0.34073395895323105
0.43036545357442585
0.5042191195544365
0.563302052338445
0.6092927443350882
0.6455481803616389
0.6724040588998245
0.6891889829861906
0.6979171435111009
0.6952315556572822
0.6844892042420081
0.6683756771190966
0.6462195773250935
0.6210421911955444
0.5918364232852674
0.5582665751125353
0.5220111390859845
0.4850843060959793
0.4495002670328832
0.41727321278706037
0.38638895246814675
0.3581902800030518
0.3296559090562295
0.3017929350728618
0.27493705653467615
0.250766765850309
0.22928206301976042
0.21014724956130307
0.19168383306630046
0.17389181353475242
0.15408560311284045
0.13327229724574652
0.11313038834210726
0.09433127336537728
0.07821774624246586
0.060090028229190504
0.041962310215915156
0.023834592202639806
0.008392462043183033
-0.004364080262455177
-0.012420843823910887
-0.017792019531548024
-0.023163195239185166
-0.02652018005645838
-0.02853437094682231
-0.029877164873731592
-0.02887006942854963
-0.02719157701991302
-0.023834592202639806
-0.01913481345845731
-0.016449225604638743
-0.016449225604638743
-0.016449225604638743
-0.01913481345845731
-0.020477607385366595
-0.021820401312275882
-0.024505989166094453
-0.029205767910276948
-0.03457694361791409
-0.03961242084382391
-0.04061951628900587
-0.03927672236209659
-0.03860532539864195
-0.03659113450827802
-0.033234149691004806
-0.029205767910276948
-0.024505989166094453
-0.017792019531548024
-0.013092240787365528
-0.006378271152819104
0.0003356984817273213
0.005706874189364461
0.007049668116273747
0.007049668116273747
0.006042572671091783
0.0050354772259098195
0.0023498893720912484
0.0010070954451819635
-0.003692683299000534
-0.011078049897001601
-0.015106431677729458
-0.017792019531548024
-0.017792019531548024
-0.0157778286411841
-0.014435034714274816
-0.011413748378728923
-0.009063859006637675
-0.007721065079728388
-0.003692683299000534
0.0010070954451819635
0.007049668116273747
0.013092240787365528
0.017120622568093383
0.01812771801327535
0.017120622568093383
0.015106431677729458
0.012756542305638208
0.010406652933546959
0.007721065079728388
0.0010070954451819635
-0.005706874189364461
-0.011078049897001601
-0.015106431677729458
-0.015106431677729458
-0.014435034714274816
-0.012420843823910887
-0.010070954451819639
-0.008392462043183033
-0.005706874189364461
-0.0016784924086366065
0.003356984817273213
0.009735255970092317
0.0157778286411841
0.019806210421911954
0.019806210421911954
0.01913481345845731
0.017120622568093383
0.014435034714274816
0.011749446860456245
0.009063859006637675
0.0016784924086366065
-0.0050354772259098195
-0.011078049897001601
-0.015106431677729458
-0.0157778286411841
-0.015106431677729458
-0.01376363775082017
-0.011078049897001601
-0.008392462043183033
-0.005706874189364461
-0.0003356984817273213
0.0050354772259098195
0.011749446860456245
0.017792019531548024
0.02349889372091249
0.023834592202639806
0.022491798275730522
0.021149004348821242
0.01846341649500267
0.0157778286411841
0.011749446860456245
0.004364080262455177
-0.005706874189364461
-0.011078049897001601
-0.016449225604638743
-0.017120622568093383
-0.0157778286411841
-0.01376363775082017
-0.011078049897001601
-0.007721065079728388
-0.003692683299000534
0.0010070954451819635
0.007721065079728388
0.015106431677729458
0.022491798275730522
0.02853437094682231
0.029205767910276948
0.02853437094682231
0.025177386129549097
0.022491798275730522
0.01913481345845731
0.014435034714274816
0.0050354772259098195
-0.004699778744182497
-0.01376363775082017
-0.01913481345845731
-0.019806210421911954
-0.01913481345845731
-0.016784924086366067
-0.01376363775082017
-0.010406652933546959
-0.007049668116273747
-0.0006713969634546426
0.007721065079728388
0.016784924086366067
0.02584878309300374
0.032898451209277486
0.03457694361791409
0.03189135576409552
0.02887006942854963
0.025177386129549097
0.021820401312275882
0.0157778286411841
0.0050354772259098195
-0.007049668116273747
-0.017792019531548024
-0.024505989166094453
-0.026184481574731057
-0.024505989166094453
-0.021820401312275882
-0.017792019531548024
-0.01376363775082017
-0.009735255970092317
-0.0016784924086366065
0.007721065079728388
0.019470511940184634
0.03054856183718624
0.03860532539864195
0.035248340581368734
0.03121995880064088
0.02719157701991302
0.023834592202639806
0.01846341649500267
0.017120622568093383
0.01376363775082017
-0.0016784924086366065
-0.017792019531548024
-0.02853437094682231
-0.032898451209277486
-0.03189135576409552
-0.029877164873731592
-0.025177386129549097
-0.020477607385366595
-0.014435034714274816
-0.005706874189364461
0.007049668116273747
0.021149004348821242
0.03457694361791409
0.035919737544823374
0.033234149691004806
0.03121995880064088
0.027862973983367664
0.025177386129549097
0.020813305867093918
0.019806210421911954
0.020813305867093918
0.010406652933546959
-0.009735255970092317
-0.024505989166094453
-0.033234149691004806
-0.03256275272755016
-0.029877164873731592
-0.02652018005645838
-0.020813305867093918
-0.014435034714274816
-0.004364080262455177
0.009735255970092317
0.02584878309300374
0.03927672236209659
0.0379339284351873
0.03692683299000534
0.035248340581368734
0.03189135576409552
0.02853437094682231
0.025177386129549097
0.023834592202639806
0.025177386129549097
0.019806210421911954
-0.0030212863355458916
-0.024505989166094453
-0.03390554665445944
-0.03692683299000534
-0.035248340581368734
-0.029877164873731592
-0.024505989166094453
-0.017120622568093383
-0.005706874189364461
0.009735255970092317
0.02853437094682231
0.03994811932555123
0.037262531471732654
0.03659113450827802
0.03659113450827802
0.033234149691004806
0.029877164873731592
0.027862973983367664
0.027862973983367664
0.029205767910276948
0.026184481574731057
0.0023498893720912484
-0.023834592202639806
-0.0379339284351873
-0.042298008697642483
-0.04061951628900587
-0.035919737544823374
-0.029877164873731592
-0.021149004348821242
-0.007721065079728388
0.012085145342183566
0.03457694361791409
0.041962310215915156
0.0379339284351873
0.03927672236209659
0.03860532539864195
0.03659113450827802
0.033234149691004806
0.029205767910276948
0.029205767910276948
0.03189135576409552
0.03121995880064088
0.007385366598001068
-0.02719157701991302
-0.043976501106279084
-0.049347676813916226
-0.0473334859235523
-0.04061951628900587
-0.033234149691004806
-0.025177386129549097
-0.009063859006637675
0.0157778286411841
0.041962310215915156
0.043640802624551764
0.03826962691691462
0.03994811932555123
0.04061951628900587
0.03826962691691462
0.035248340581368734
0.03054856183718624
0.03054856183718624
0.033234149691004806
0.033234149691004806
0.010406652933546959
-0.02853437094682231
-0.0473334859235523
-0.05304036011291676
-0.05270466163118945
0.2729228656443122
1.5089646753643091
0.3420767528801404
-0.547524223697261
-0.27862973983367667
-0.24606698710612646
-0.2323033493553063
-0.19638361181048294
-0.1708705271992065
-0.14602883955138474
-0.12387273975738157
-0.10507362478065153
-0.08896009765774013
-0.0694895857175555
-0.05035477225909819
-0.035919737544823374
-0.04666208896009766
-0.07150377660791943
-0.0788891432059205
-0.07284657053482871
1.2739757381551842
5.259388113221942
6.923109788662545
2.034668497749294
-3.1344167238879987
-2.4683909361409935
-2.0474250400549323
-1.9500724803540093
-1.6915846494239721
-1.4881513694972153
-1.3001602197299151
-1.1208972304875255
-0.9577477683680475
-0.8090333409628443
-0.6697184710460059
-0.5401388570992599
-0.426337071793698
-0.34946211947814143
-0.29440756847486077
-0.22861066605630578
1.2135500114442663
7.660303654535745
10.967605096513314
10.97297627222095
5.193591210803387
-6.764660105287252
-6.486030365453574
-5.019699397268634
-4.776653696498054
-4.158297093156328
-3.6151369497215224
-3.140123598077363
-2.6832379644464788
-2.2676432440680556
-1.8883039597161821
-1.5385061417563133
-1.2199282825970854
-0.9365987640192264
-0.7093308918898298
-0.519325551232166
-0.3346913862821393
2.128664072632944
9.277027542534523
10.971633478294041
10.97297627222095
2.708079652094301
-6.862012664988175
-5.769649805447471
-4.645395590142671
-4.297611963073167
-3.65810635538262
-3.1203173876554513
-2.6402685587853814
-2.1897611963073165
-1.7855802243076222
-1.4200045777065688
-1.0873273823147935
-0.7872129396505684
-0.5230182345311665
-0.31320668345159075
-0.1453574425879301
0.013092240787365528
0.16214236667429618
0.5945220111390859
3.229755092698558
3.7541161211566343
0.15475700007629511
-0.6260776684214542
-0.11044480048828872
-0.06277561608300908
0.04531929503318838
0.14468604562447548
0.2212252994583047
0.2890363927672236
0.34073395895323105
0.38101777676050963
0.4119020370794232
0.43875791561760885
0.4615854123750668
0.47367055771725036
0.4615854123750668
0.426337071793698
0.40115968566414895
0.3884031433585107
0.37799649042496375
0.3689326314183261
0.3602044708934157
0.35147631036850535
0.34879072251468685
0.35349050125886927
0.35416189822232397
0.3293202105745021
0.30582131685358965
0.28937209124895097
0.26889448386358433
0.24673838406958112
0.22525368123903253
0.20309758144502937
0.18698405432211795
0.17557030594338902
0.1594567788204776
0.12991531242847335
0.08157473105973906
0.043976501106279084
0.022491798275730522
0.009735255970092317
0.0023498893720912484
-0.0010070954451819635
-0.0030212863355458916
0.0030212863355458916
0.0157778286411841
0.03189135576409552
0.027862973983367664
0.019806210421911954
0.019806210421911954
0.01846341649500267
0.014435034714274816
0.009063859006637675
0.004364080262455177
0.005706874189364461
0.009735255970092317
0.010070954451819639
0.0010070954451819635
-0.02887006942854963
-0.055390249485008015
-0.06747539482719157
-0.07150377660791943
-0.07016098268101013
-0.06613260090028229
-0.05941863126573587
-0.04800488288700694
-0.029877164873731592
-0.007049668116273747
0.0023498893720912484
0.0010070954451819635
0.007049668116273747
0.011078049897001601
0.011749446860456245
0.012420843823910887
0.011749446860456245
0.014435034714274816
0.019806210421911954
0.023163195239185166
0.015106431677729458
-0.013092240787365528
-0.0379339284351873
-0.050019073777370866
-0.054047455558098714
-0.05270466163118945
-0.0473334859235523
-0.04129091325246051
-0.03121995880064088
-0.01376363775082017
0.007721065079728388
0.019806210421911954
0.01913481345845731
0.023163195239185166
0.02584878309300374
0.02652018005645838
0.025177386129549097
0.021820401312275882
0.025177386129549097
0.03054856183718624
0.03121995880064088
0.023834592202639806
-0.0010070954451819635
-0.024505989166094453
-0.035248340581368734
-0.03860532539864195
-0.03692683299000534
-0.03189135576409552
-0.026184481574731057
-0.01812771801327535
-0.005706874189364461
0.011078049897001601
0.0157778286411841
0.015106431677729458
0.019806210421911954
0.022491798275730522
0.022491798275730522
0.020477607385366595
0.01846341649500267
0.01913481345845731
0.02349889372091249
0.023834592202639806
0.011078049897001601
-0.009735255970092317
-0.023163195239185166
-0.029205767910276948
-0.030212863355458915
-0.02719157701991302
-0.023163195239185166
-0.01913481345845731
-0.012420843823910887
-0.0030212863355458916
0.009063859006637675
0.01376363775082017
0.013092240787365528
0.017792019531548024
0.01913481345845731
0.01913481345845731
0.01846341649500267
0.017120622568093383
0.01846341649500267
0.021820401312275882
0.021820401312275882
0.008392462043183033
-0.009063859006637675
-0.020477607385366595
-0.024505989166094453
-0.025177386129549097
-0.023163195239185166
-0.01913481345845731
-0.0157778286411841
-0.010406652933546959
-0.002014190890363927
0.007721065079728388
0.017120622568093383
0.019806210421911954
0.021149004348821242
0.023834592202639806
0.022491798275730522
0.021149004348821242
0.019470511940184634
0.019806210421911954
0.023163195239185166
0.01913481345845731
0.003692683299000534
-0.009063859006637675
-0.01846341649500267
-0.020477607385366595
-0.021149004348821242
-0.01913481345845731
-0.0157778286411841
-0.011749446860456245
-0.007721065079728388
-0.0010070954451819635
0.007721065079728388
0.017792019531548024
0.023834592202639806
0.024505989166094453
0.024841687647821773
0.023834592202639806
0.021820401312275882
0.019806210421911954
0.019806210421911954
0.021820401312275882
0.01376363775082017
-0.0003356984817273213
-0.010406652933546959
-0.017120622568093383
-0.01913481345845731
-0.01846341649500267
-0.016449225604638743
-0.012756542305638208
-0.009735255970092317
-0.005706874189364461
0.0010070954451819635
0.009063859006637675
0.017120622568093383
0.025177386129549097
0.02719157701991302
0.02584878309300374
0.025177386129549097
0.022491798275730522
0.019806210421911954
0.019806210421911954
0.017792019531548024
0.008728160524910353
-0.0023498893720912484
-0.011078049897001601
-0.017456321049820707
-0.01846341649500267
-0.017792019531548024
-0.0157778286411841
-0.012420843823910887
-0.008392462043183033
-0.004364080262455177
0.0010070954451819635
0.008392462043183033
0.0157778286411841
0.023834592202639806
0.02887006942854963
0.029877164873731592
0.027862973983367664
0.023834592202639806
0.021820401312275882
0.019806210421911954
0.013092240787365528
0.006378271152819104
-0.0030212863355458916
-0.011078049897001601
-0.0157778286411841
-0.016449225604638743
-0.0157778286411841
-0.012756542305638208
-0.010406652933546959
-0.007049668116273747
-0.003692683299000534
0.0016784924086366065
0.008728160524910353
0.015442130159456776
0.022491798275730522
0.02719157701991302
0.027862973983367664
0.02752727550164034
0.024505989166094453
0.021149004348821242
0.01913481345845731
0.014099336232547494
0.007049668116273747
-0.0016784924086366065
-0.008392462043183033
-0.012420843823910887
-0.01376363775082017
-0.013092240787365528
-0.011078049897001601
-0.009063859006637675
-0.007049668116273747
-0.0030212863355458916
0.002014190890363927
0.007721065079728388
0.01376363775082017
0.021149004348821242
0.02584878309300374
0.025177386129549097
0.025177386129549097
0.022491798275730522
0.019470511940184634
0.016449225604638743
0.013092240787365528
0.006378271152819104
-0.0006713969634546426
-0.007049668116273747
-0.011078049897001601
-0.011413748378728923
-0.010070954451819639
-0.007721065079728388
-0.005706874189364461
-0.0030212863355458916
-0.0003356984817273213
0.004364080262455177
0.008392462043183033
0.013092240787365528
0.019806210421911954
0.022491798275730522
0.023163195239185166
0.021149004348821242
0.020141908903639278
0.01812771801327535
0.0157778286411841
0.011749446860456245
0.006378271152819104
0.0010070954451819635
-0.003692683299000534
-0.007049668116273747
-0.008392462043183033
-0.007385366598001068
-0.005706874189364461
-0.003692683299000534
-0.0023498893720912484
0.0003356984817273213
0.003692683299000534
0.007049668116273747
0.011749446860456245
0.017120622568093383
0.019806210421911954
0.019806210421911954
0.01846341649500267
0.01812771801327535
0.0157778286411841
0.01376363775082017
0.010406652933546959
0.006042572671091783
0.0016784924086366065
-0.0023498893720912484
-0.0050354772259098195
-0.005706874189364461
-0.0050354772259098195
-0.003692683299000534
-0.0030212863355458916
-0.0003356984817273213
0.0016784924086366065
0.003692683299000534
0.007049668116273747
0.011078049897001601
0.014435034714274816
0.016449225604638743
0.017792019531548024
0.017120622568093383
0.0157778286411841
0.014435034714274816
0.012420843823910887
0.009735255970092317
0.006378271152819104
0.0013427939269092851
-0.0010070954451819635
-0.0030212863355458916
-0.0030212863355458916
-0.0030212863355458916
-0.0016784924086366065
-0.0010070954451819635
0.0010070954451819635
0.0023498893720912484
0.0050354772259098195
0.007721065079728388
0.010406652933546959
0.01376363775082017
0.0157778286411841
0.0157778286411841
0.0157778286411841
0.014435034714274816
0.013092240787365528
0.012420843823910887
0.010406652933546959
0.006378271152819104
0.003692683299000534
0.0010070954451819635
-0.0010070954451819635
-0.0016784924086366065
-0.0010070954451819635
-0.0003356984817273213
0.0010070954451819635
0.0016784924086366065
0.0023498893720912484
0.0050354772259098195
0.008392462043183033
0.010406652933546959
0.012756542305638208
0.014435034714274816
0.014435034714274816
0.013092240787365528
0.013092240787365528
0.011749446860456245
0.010406652933546959
0.009063859006637675
0.006378271152819104
0.0030212863355458916
0.0010070954451819635
-0.0010070954451819635
-0.0016784924086366065
-0.0010070954451819635
-0.0003356984817273213
0.0010070954451819635
0.0023498893720912484
0.0030212863355458916
0.004699778744182497
0.006378271152819104
0.009063859006637675
0.011413748378728923
0.013092240787365528
0.01376363775082017
0.013092240787365528
0.011749446860456245
0.011413748378728923
0.010406652933546959
0.008728160524910353
0.005706874189364461
0.0030212863355458916
0.0010070954451819635
0.0003356984817273213
-0.0003356984817273213
0.0006713969634546426
0.0016784924086366065
0.0023498893720912484
0.0023498893720912484
0.003692683299000534
0.005706874189364461
0.007721065079728388
0.009063859006637675
0.011078049897001601
0.012085145342183566
0.012420843823910887
0.012420843823910887
0.011078049897001601
0.010406652933546959
0.009735255970092317
0.008392462043183033
0.006042572671091783
0.003692683299000534
0.0023498893720912484
0.0016784924086366065
0.0010070954451819635
0.0016784924086366065
0.0023498893720912484
0.0023498893720912484
0.003692683299000534
0.004364080262455177
0.005706874189364461
0.007721065079728388
0.010406652933546959
0.011749446860456245
0.013092240787365528
0.013092240787365528
0.013092240787365528
0.012085145342183566
0.010406652933546959
0.010406652933546959
0.008392462043183033
0.006378271152819104
0.003692683299000534
0.0023498893720912484
0.0016784924086366065
0.0010070954451819635
0.0010070954451819635
0.0016784924086366065
0.002014190890363927
0.0023498893720912484
0.003692683299000534
0.004364080262455177
0.006713969634546426
0.008728160524910353
0.010406652933546959
0.011413748378728923
0.011749446860456245
0.011749446860456245
0.010406652933546959
0.010070954451819639
0.009735255970092317
0.008392462043183033
0.0050354772259098195
0.004364080262455177
0.0030212863355458916
0.0016784924086366065
0.0016784924086366065
0.0016784924086366065
0.0023498893720912484
0.0023498893720912484
0.003692683299000534
0.004364080262455177
0.006042572671091783
0.007721065079728388
0.009063859006637675
0.010406652933546959
0.011749446860456245
0.011749446860456245
0.011749446860456245
0.010406652933546959
0.010406652933546959
0.008728160524910353
0.007721065079728388
0.006713969634546426
0.004699778744182497
0.0023498893720912484
0.0023498893720912484
0.0010070954451819635
0.0016784924086366065
0.0023498893720912484
0.003356984817273213
0.003692683299000534
0.004364080262455177
0.0050354772259098195
0.007049668116273747
0.009735255970092317
0.010406652933546959
0.011749446860456245
0.011413748378728923
0.011749446860456245
0.010406652933546959
0.009735255970092317
0.009063859006637675
0.007721065079728388
0.005706874189364461
0.003692683299000534
0.0023498893720912484
0.0016784924086366065
0.0016784924086366065
0.0016784924086366065
0.0023498893720912484
0.0023498893720912484
0.0030212863355458916
0.004364080262455177
0.006378271152819104
0.007049668116273747
0.009063859006637675
0.010406652933546959
0.010406652933546959
0.010406652933546959
0.010406652933546959
0.010406652933546959
0.009735255970092317
0.009063859006637675
0.007721065079728388
0.006378271152819104
0.003692683299000534
0.0023498893720912484
0.002014190890363927
0.0010070954451819635
0.0016784924086366065
0.002014190890363927
0.0023498893720912484
0.003692683299000534
0.004364080262455177
0.0050354772259098195
0.007385366598001068
0.009063859006637675
0.010406652933546959
0.010406652933546959
0.010406652933546959
0.011078049897001601
0.010406652933546959
0.009735255970092317
0.009735255970092317
0.008392462043183033
0.007049668116273747
0.0050354772259098195
0.0030212863355458916
0.0023498893720912484
0.0023498893720912484
0.0023498893720912484
0.0023498893720912484
0.004364080262455177
0.004364080262455177
0.0050354772259098195
0.006042572671091783
0.007049668116273747
0.008392462043183033
0.010406652933546959
0.011078049897001601
0.010406652933546959
0.011078049897001601
0.011078049897001601
0.009735255970092317
0.009735255970092317
0.007721065079728388
0.006378271152819104
0.0050354772259098195
0.0023498893720912484
0.002014190890363927
0.0023498893720912484
0.0023498893720912484
0.002014190890363927
0.0023498893720912484
0.004364080262455177
0.004364080262455177
0.006378271152819104
0.007049668116273747
0.009063859006637675
0.010406652933546959
0.011749446860456245
0.010406652933546959
0.010406652933546959
0.010406652933546959
0.009735255970092317
0.009735255970092317
0.007721065079728388
0.006378271152819104
0.004364080262455177
0.0023498893720912484
0.0016784924086366065
0.0023498893720912484
0.0023498893720912484
0.0023498893720912484
0.0030212863355458916
0.003692683299000534
0.003692683299000534
0.005706874189364461
0.007049668116273747
0.009063859006637675
0.010406652933546959
0.011749446860456245
0.011078049897001601
0.011413748378728923
0.010406652933546959
0.009735255970092317
0.009735255970092317
0.008392462043183033
0.006378271152819104
0.0050354772259098195
0.003356984817273213
0.0023498893720912484
0.0023498893720912484
0.0030212863355458916
0.0023498893720912484
0.003692683299000534
0.003692683299000534
0.0050354772259098195
0.0050354772259098195
0.006378271152819104
0.008392462043183033
0.010070954451819639
0.011078049897001601
0.010406652933546959
0.010406652933546959
0.010406652933546959
0.010070954451819639
0.008728160524910353
0.007721065079728388
0.005706874189364461
0.004364080262455177
0.0030212863355458916
0.0023498893720912484
0.0016784924086366065
0.0023498893720912484
0.0030212863355458916
0.003692683299000534
0.004364080262455177
0.0050354772259098195
0.006713969634546426
0.007385366598001068
0.009063859006637675
0.010406652933546959
0.010406652933546959
0.010406652933546959
0.011078049897001601
0.011078049897001601
0.009735255970092317
0.009063859006637675
0.008392462043183033
0.006378271152819104
0.0050354772259098195
0.003692683299000534
0.0023498893720912484
0.0023498893720912484
0.0023498893720912484
0.0023498893720912484
0.003356984817273213
0.0030212863355458916
0.004364080262455177
0.0050354772259098195
0.007049668116273747
0.007721065079728388
0.010406652933546959
0.010406652933546959
0.010406652933546959
0.010406652933546959
0.010070954451819639
0.009735255970092317
0.008392462043183033
0.007385366598001068
0.006378271152819104
0.0050354772259098195
0.0023498893720912484
0.0023498893720912484
0.0016784924086366065
0.0023498893720912484
0.0023498893720912484
0.0023498893720912484
0.003356984817273213
0.004699778744182497
0.006042572671091783
0.007049668116273747
0.008392462043183033
0.010070954451819639
0.010406652933546959
0.011078049897001601
0.010406652933546959
0.010406652933546959
0.010070954451819639
0.009063859006637675
0.007721065079728388
0.007049668116273747
0.0050354772259098195
0.003692683299000534
0.0023498893720912484
0.0023498893720912484
0.0023498893720912484
0.0030212863355458916
0.003356984817273213
0.003356984817273213
0.0050354772259098195
0.005706874189364461
0.007721065079728388
0.009063859006637675
0.010406652933546959
0.010406652933546959
0.011749446860456245
0.011078049897001601
0.011078049897001601
0.010070954451819639
0.009063859006637675
0.007721065079728388
0.006378271152819104
0.0050354772259098195
0.003692683299000534
0.0023498893720912484
0.0016784924086366065
0.0023498893720912484
0.0023498893720912484
0.003356984817273213
0.004364080262455177
0.0050354772259098195
0.006042572671091783
0.007385366598001068
0.008392462043183033
0.009735255970092317
0.011078049897001601
0.011749446860456245
0.010406652933546959
0.009735255970092317
0.009735255970092317
0.009063859006637675
0.007721065079728388
0.006378271152819104
0.003692683299000534
0.0030212863355458916
0.0023498893720912484
0.0016784924086366065
0.0016784924086366065
0.0030212863355458916
0.003356984817273213
0.004364080262455177
0.0050354772259098195
0.005706874189364461
0.007385366598001068
0.008728160524910353
0.009735255970092317
0.011749446860456245
0.011749446860456245
0.010406652933546959
0.010406652933546959
0.009063859006637675
0.008392462043183033
0.007721065079728388
0.005706874189364461
0.004364080262455177
0.0023498893720912484
0.0016784924086366065
0.0010070954451819635
0.0016784924086366065
0.0023498893720912484
0.003692683299000534
0.003692683299000534
0.004364080262455177
0.006378271152819104
0.007721065079728388
0.009063859006637675
0.010406652933546959
0.011078049897001601
0.011749446860456245
0.011749446860456245
0.010406652933546959
0.009735255970092317
0.009735255970092317
0.008392462043183033
0.006378271152819104
0.0050354772259098195
0.003692683299000534
0.002014190890363927
0.002014190890363927
0.0023498893720912484
0.003692683299000534
0.003692683299000534
0.003692683299000534
0.0050354772259098195
0.006378271152819104
0.007721065079728388
0.009063859006637675
0.010406652933546959
0.011078049897001601
0.011749446860456245
0.010406652933546959
0.010070954451819639
0.009735255970092317
0.009063859006637675
0.007721065079728388
0.006042572671091783
0.004364080262455177
0.0023498893720912484
0.0023498893720912484
0.0006713969634546426
0.0010070954451819635
0.002014190890363927
0.0023498893720912484
0.003692683299000534
0.003692683299000534
0.0050354772259098195
0.006378271152819104
0.007721065079728388
0.009063859006637675
0.010406652933546959
0.011413748378728923
0.010406652933546959
0.009735255970092317
0.009063859006637675
0.009063859006637675
0.006378271152819104
0.0050354772259098195
0.004364080262455177
0.0016784924086366065
0.0016784924086366065
0.0016784924086366065
0.0023498893720912484
0.0030212863355458916
0.003692683299000534
0.003692683299000534
0.0050354772259098195
0.0050354772259098195
0.007721065079728388
0.009063859006637675
0.010070954451819639
0.011413748378728923
0.011078049897001601
0.010406652933546959
0.009063859006637675
0.010070954451819639
0.009063859006637675
0.008728160524910353
0.006378271152819104
0.004364080262455177
0.0030212863355458916
0.0023498893720912484
0.0023498893720912484
0.0023498893720912484
0.0023498893720912484
0.003692683299000534
0.004364080262455177
0.0050354772259098195
0.006378271152819104
0.007721065079728388
0.009063859006637675
0.010406652933546959
0.011413748378728923
0.011749446860456245
0.011749446860456245
0.010406652933546959
0.009735255970092317
0.009063859006637675
0.007721065079728388
0.007049668116273747
0.0050354772259098195
0.003692683299000534
0.0023498893720912484
0.0023498893720912484
0.0016784924086366065
0.0023498893720912484
0.003692683299000534
0.004364080262455177
0.0050354772259098195
0.005706874189364461
0.007721065079728388
0.009063859006637675
0.011078049897001601
0.011078049897001601
0.011749446860456245
0.011749446860456245
0.010406652933546959
0.009063859006637675
0.009063859006637675
0.007721065079728388
0.006378271152819104
0.004364080262455177
0.0023498893720912484
0.0016784924086366065
0.0016784924086366065
0.0023498893720912484
0.0023498893720912484
0.0023498893720912484
0.003692683299000534
0.004364080262455177
0.0050354772259098195
0.006378271152819104
0.007721065079728388
0.009735255970092317
0.009735255970092317
0.010406652933546959
0.010406652933546959
0.009735255970092317
0.009063859006637675
0.008392462043183033
0.007721065079728388
0.005706874189364461
0.003692683299000534
0.0023498893720912484
0.0016784924086366065
0.0016784924086366065
0.0016784924086366065
0.0023498893720912484
0.0030212863355458916
0.004364080262455177
0.0050354772259098195
0.006378271152819104
0.007385366598001068
0.009063859006637675
0.010406652933546959
0.011413748378728923
0.011749446860456245
0.011413748378728923
0.010406652933546959
0.010406652933546959
0.009735255970092317
0.007721065079728388
0.006378271152819104
0.006042572671091783
0.003692683299000534
0.003692683299000534
0.0023498893720912484
0.0023498893720912484
0.0030212863355458916
0.003692683299000534
0.004364080262455177
0.0050354772259098195
0.006042572671091783
0.007721065079728388
0.009063859006637675
0.010406652933546959
0.011749446860456245
0.011749446860456245
0.011078049897001601
0.010406652933546959
0.009735255970092317
0.009063859006637675
0.007721065079728388
0.006378271152819104
0.004364080262455177
0.0023498893720912484
0.0023498893720912484
0.002014190890363927
0.0023498893720912484
0.0023498893720912484
0.003356984817273213
0.003692683299000534
0.0050354772259098195
0.005706874189364461
0.007049668116273747
0.007721065079728388
0.010070954451819639
0.011413748378728923
0.010406652933546959
0.009735255970092317
0.009735255970092317
0.009063859006637675
0.007721065079728388
0.007385366598001068
0.0050354772259098195
0.003692683299000534
0.0023498893720912484
0.0010070954451819635
0.0013427939269092851
0.0023498893720912484
0.0030212863355458916
0.003356984817273213
0.003356984817273213
0.0050354772259098195
0.006042572671091783
0.007049668116273747
0.009063859006637675
0.010406652933546959
0.011078049897001601
0.010406652933546959
0.010406652933546959
0.010406652933546959
0.010406652933546959
0.009063859006637675
0.007721065079728388
0.006378271152819104
0.004364080262455177
0.0023498893720912484
0.0023498893720912484
0.0016784924086366065
0.0023498893720912484
0.003356984817273213
0.003692683299000534
0.0023498893720912484
0.004699778744182497
0.006378271152819104
0.007721065079728388
0.009063859006637675
0.011413748378728923
0.011749446860456245
0.011413748378728923
0.011749446860456245
0.010406652933546959
0.010406652933546959
0.009735255970092317
0.007721065079728388
0.006378271152819104
0.004364080262455177
0.003692683299000534
0.0023498893720912484
0.0023498893720912484
0.0023498893720912484
0.0023498893720912484
0.0023498893720912484
0.003692683299000534
0.0050354772259098195
0.005706874189364461
0.007385366598001068
0.009063859006637675
0.010070954451819639
0.010406652933546959
0.011749446860456245
0.011078049897001601
0.010406652933546959
0.009735255970092317
0.009063859006637675
0.007721065079728388
0.005706874189364461
0.0050354772259098195
0.0030212863355458916
0.0023498893720912484
0.0023498893720912484
0.0023498893720912484
0.0030212863355458916
0.003692683299000534
0.004699778744182497
0.0050354772259098195
0.005706874189364461
0.007721065079728388
0.009063859006637675
0.010406652933546959
0.011413748378728923
0.011078049897001601
0.010406652933546959
0.009735255970092317
0.009399557488364994
0.009063859006637675
0.007721065079728388
0.0050354772259098195
0.004364080262455177
0.0023498893720912484
0.0016784924086366065
0.0016784924086366065
0.0023498893720912484
0.0023498893720912484
0.0030212863355458916
0.003692683299000534
0.0050354772259098195
0.005706874189364461
0.007721065079728388
0.008728160524910353
0.010406652933546959
0.011078049897001601
0.011078049897001601
0.010406652933546959
0.009735255970092317
0.009063859006637675
0.009063859006637675
0.007721065079728388
0.006042572671091783
0.004364080262455177
0.0023498893720912484
0.0010070954451819635
0.0013427939269092851
0.002014190890363927
0.0030212863355458916
0.003692683299000534
0.004364080262455177
0.004364080262455177
0.006042572671091783
0.007049668116273747
0.008392462043183033
0.010406652933546959
0.011413748378728923
0.011749446860456245
0.011749446860456245
0.010406652933546959
0.010406652933546959
0.009735255970092317
0.008728160524910353
0.006378271152819104
0.0050354772259098195
0.0023498893720912484
0.0023498893720912484
0.0023498893720912484
0.0030212863355458916
0.003356984817273213
0.003692683299000534
0.003692683299000534
0.0050354772259098195
0.007049668116273747
0.008392462043183033
0.009063859006637675
0.010406652933546959
0.010406652933546959
0.011413748378728923
0.011078049897001601
0.010406652933546959
0.009063859006637675
0.009063859006637675
0.007721065079728388
0.0050354772259098195
0.004364080262455177
0.0030212863355458916
0.0023498893720912484
0.0023498893720912484
0.0016784924086366065
0.0023498893720912484
0.0030212863355458916
0.003692683299000534
0.004364080262455177
0.0050354772259098195
0.007385366598001068
0.008392462043183033
0.009735255970092317
0.010406652933546959
0.010406652933546959
0.010406652933546959
0.009063859006637675
0.009063859006637675
0.008392462043183033
0.007049668116273747
0.005706874189364461
0.003692683299000534
0.0023498893720912484
0.0023498893720912484
0.0010070954451819635
0.0016784924086366065
0.0023498893720912484
0.003356984817273213
0.004364080262455177
0.0050354772259098195
0.006042572671091783
0.007721065079728388
0.008392462043183033
0.010406652933546959
0.011749446860456245
0.011749446860456245
0.011749446860456245
0.010406652933546959
0.010070954451819639
0.009735255970092317
0.009063859006637675
0.006378271152819104
0.004364080262455177
0.003692683299000534
0.0023498893720912484
0.0023498893720912484
0.0023498893720912484
0.0030212863355458916
0.004364080262455177
0.0050354772259098195
0.0050354772259098195
0.006378271152819104
0.007721065079728388
0.009735255970092317
0.010406652933546959
0.010406652933546959
0.011078049897001601
0.011078049897001601
0.010070954451819639
0.009063859006637675
0.008728160524910353
0.007385366598001068
0.0050354772259098195
0.004028381780727854
0.0023498893720912484
0.0023498893720912484
0.0016784924086366065
0.0016784924086366065
0.0023498893720912484
0.003356984817273213
0.004364080262455177
0.004364080262455177
0.0050354772259098195
0.007721065079728388
0.009063859006637675
0.010406652933546959
0.010070954451819639
0.010406652933546959
0.010406652933546959
0.009735255970092317
0.009063859006637675
0.008392462043183033
0.007721065079728388
0.005706874189364461
0.003356984817273213
0.0023498893720912484
0.0023498893720912484
0.0023498893720912484
0.002014190890363927
0.0023498893720912484
0.0023498893720912484
0.003692683299000534
0.004364080262455177
0.005706874189364461
0.007721065079728388
0.009063859006637675
0.010406652933546959
0.011078049897001601
0.010406652933546959
0.010406652933546959
0.010406652933546959
0.009735255970092317
0.009735255970092317
0.007721065079728388
0.006378271152819104
0.004028381780727854
0.0030212863355458916
0.0023498893720912484
0.0023498893720912484
0.0023498893720912484
0.0023498893720912484
0.0030212863355458916
0.003692683299000534
0.004364080262455177
0.0050354772259098195
0.007049668116273747
0.008392462043183033
0.010406652933546959
0.010406652933546959
0.010406652933546959
0.010406652933546959
0.010406652933546959
0.009735255970092317
0.009063859006637675
0.007049668116273747
0.006378271152819104
0.0050354772259098195
0.0023498893720912484
0.0016784924086366065
0.002014190890363927
0.0016784924086366065
0.0023498893720912484
0.0030212863355458916
0.004364080262455177
0.0050354772259098195
0.006042572671091783
0.007049668116273747
0.008728160524910353
0.010406652933546959
0.011078049897001601
0.011413748378728923
0.010406652933546959
0.010406652933546959
0.009063859006637675
0.009063859006637675
0.007721065079728388
0.006042572671091783
0.003692683299000534
0.0023498893720912484
0.0010070954451819635
0.0023498893720912484
0.0030212863355458916
0.0023498893720912484
0.003692683299000534
0.004364080262455177
0.0050354772259098195
0.005706874189364461
0.007721065079728388
0.009063859006637675
0.010406652933546959
0.010406652933546959
0.010406652933546959
0.010070954451819639
0.009735255970092317
0.009735255970092317
0.009063859006637675
0.007049668116273747
0.006042572671091783
0.004364080262455177
0.0023498893720912484
0.002014190890363927
0.0023498893720912484
0.0023498893720912484
0.003356984817273213
0.003692683299000534
0.004699778744182497
0.0050354772259098195
0.006042572671091783
0.008392462043183033
0.009735255970092317
0.011078049897001601
0.010406652933546959
0.010406652933546959
0.010406652933546959
0.010406652933546959
0.010070954451819639
0.008728160524910353
0.007721065079728388
0.006378271152819104
0.004364080262455177
0.0023498893720912484
0.0016784924086366065
0.002014190890363927
0.002014190890363927
0.0023498893720912484
0.0023498893720912484
0.003692683299000534
0.0050354772259098195
0.0050354772259098195
0.007049668116273747
0.007721065079728388
0.010070954451819639
0.011078049897001601
0.010406652933546959
0.010406652933546959
0.010406652933546959
0.009735255970092317
0.008392462043183033
0.006378271152819104
0.0050354772259098195
0.0050354772259098195
0.0023498893720912484
0.0016784924086366065
0.0016784924086366065
0.0023498893720912484
0.0023498893720912484
0.003692683299000534
0.003692683299000534
0.004364080262455177
0.005706874189364461
0.007721065079728388
0.009063859006637675
0.010406652933546959
0.011078049897001601
0.010406652933546959
0.010406652933546959
0.009735255970092317
0.009063859006637675
0.009063859006637675
0.007049668116273747
0.006042572671091783
0.0050354772259098195
0.0023498893720912484
0.002014190890363927
0.0016784924086366065
0.0023498893720912484
0.0023498893720912484
0.0030212863355458916
0.003692683299000534
0.004364080262455177
0.0050354772259098195
0.006378271152819104
0.007721065079728388
0.010406652933546959
0.010406652933546959
0.011413748378728923
0.009735255970092317
0.010406652933546959
0.009735255970092317
0.008728160524910353
0.007721065079728388
0.006042572671091783
0.004364080262455177
0.0023498893720912484
0.0016784924086366065
0.0016784924086366065
0.0023498893720912484
0.0023498893720912484
0.003692683299000534
0.003692683299000534
0.006042572671091783
0.006378271152819104
0.007385366598001068
0.008728160524910353
0.010070954451819639
0.010406652933546959
0.010406652933546959
0.010070954451819639
0.010070954451819639
0.009735255970092317
0.008392462043183033
0.007721065079728388
0.006713969634546426
0.004699778744182497
0.003692683299000534
0.0023498893720912484
0.0023498893720912484
0.0023498893720912484
0.0023498893720912484
0.003356984817273213
0.004364080262455177
0.0050354772259098195
0.006378271152819104
0.007721065079728388
0.009063859006637675
0.010070954451819639
0.010406652933546959
0.011078049897001601
0.009735255970092317
0.009063859006637675
0.009399557488364994
0.009063859006637675
0.007049668116273747
0.0050354772259098195
0.003692683299000534
0.0023498893720912484
0.002014190890363927
0.0016784924086366065
0.0023498893720912484
0.0030212863355458916
0.0030212863355458916
0.003692683299000534
0.004364080262455177
0.0050354772259098195
0.007721065079728388
0.008392462043183033
0.009063859006637675
0.010406652933546959
0.010406652933546959
0.009063859006637675
0.008728160524910353
0.009063859006637675
0.008392462043183033
0.007721065079728388
0.006378271152819104
0.004364080262455177
0.003356984817273213
0.0023498893720912484
0.0023498893720912484
0.0030212863355458916
0.0030212863355458916
0.003692683299000534
0.004364080262455177
0.0050354772259098195
0.006378271152819104
0.007721065079728388
0.009063859006637675
0.011413748378728923
0.011749446860456245
0.011749446860456245
0.011078049897001601
0.010406652933546959
0.010406652933546959
0.009063859006637675
0.007721065079728388
0.005706874189364461
0.003692683299000534
0.003356984817273213
0.0023498893720912484
0.0023498893720912484
0.0023498893720912484
0.0030212863355458916
0.003692683299000534
0.004364080262455177
0.0050354772259098195
0.006378271152819104
0.007721065079728388
0.008392462043183033
0.010406652933546959
0.011413748378728923
0.010406652933546959
0.010406652933546959
0.009735255970092317
0.009735255970092317
0.008392462043183033
0.007721065079728388
0.0050354772259098195
0.004028381780727854
0.003356984817273213
0.0023498893720912484
0.002014190890363927
0.0023498893720912484
0.0030212863355458916
0.003692683299000534
0.003692683299000534
0.004364080262455177
0.006378271152819104
0.007721065079728388
0.009063859006637675
0.010406652933546959
0.011078049897001601
0.010406652933546959
0.010406652933546959
0.009735255970092317
0.009063859006637675
0.009063859006637675
0.007049668116273747
0.0050354772259098195
0.003692683299000534
0.0023498893720912484
0.0016784924086366065
0.0023498893720912484
0.0023498893720912484
0.0023498893720912484
0.003692683299000534
0.003692683299000534
0.004699778744182497
0.006042572671091783
0.007721065079728388
0.008392462043183033
0.010070954451819639
0.010406652933546959
0.011078049897001601
0.010406652933546959
0.009735255970092317
0.009735255970092317
0.009063859006637675
0.007721065079728388
0.006378271152819104
0.004364080262455177
0.0023498893720912484
0.0023498893720912484
0.0016784924086366065
0.0023498893720912484
0.0023498893720912484
0.0030212863355458916
0.003692683299000534
0.0050354772259098195
0.006378271152819104
0.007721065079728388
0.009063859006637675
0.010406652933546959
0.011749446860456245
0.011749446860456245
0.010406652933546959
0.009735255970092317
0.009063859006637675
0.008392462043183033
0.007721065079728388
0.0050354772259098195
0.003692683299000534
0.0023498893720912484
0.002014190890363927
0.002014190890363927
0.0023498893720912484
0.0023498893720912484
0.0030212863355458916
0.003692683299000534
0.004699778744182497
0.0050354772259098195
0.007385366598001068
0.009063859006637675
0.009735255970092317
0.010406652933546959
0.010406652933546959
0.010406652933546959
0.009735255970092317
0.009735255970092317
0.009063859006637675
0.007049668116273747
0.0050354772259098195
0.003692683299000534
0.0023498893720912484
0.002014190890363927
0.0016784924086366065
0.002014190890363927
0.0023498893720912484
0.0030212863355458916
0.003692683299000534
0.004699778744182497
0.006378271152819104
0.007721065079728388
0.009063859006637675
0.010406652933546959
0.011413748378728923
0.011749446860456245
0.011749446860456245
0.010406652933546959
0.009399557488364994
0.009063859006637675
0.007721065079728388
0.006378271152819104
0.003692683299000534
0.0023498893720912484
0.0016784924086366065
0.0023498893720912484
0.0023498893720912484
0.003692683299000534
0.003692683299000534
0.0050354772259098195
0.006378271152819104
0.007721065079728388
0.008392462043183033
0.010070954451819639
0.011413748378728923
0.011749446860456245
0.011413748378728923
0.011078049897001601
0.010406652933546959
0.009735255970092317
0.009063859006637675
0.007721065079728388
0.005706874189364461
0.003692683299000534
0.0023498893720912484
0.0016784924086366065
0.0016784924086366065
0.0016784924086366065
0.0023498893720912484
0.0030212863355458916
0.004364080262455177
0.0050354772259098195
0.006378271152819104
0.007721065079728388
0.008392462043183033
0.010070954451819639
0.010406652933546959
0.009735255970092317
0.010406652933546959
0.009735255970092317
0.008392462043183033
0.007721065079728388
0.006378271152819104
0.005706874189364461
0.0030212863355458916
0.002014190890363927
0.0016784924086366065
0.0016784924086366065
0.0023498893720912484
0.0023498893720912484
0.0030212863355458916
0.004364080262455177
0.0050354772259098195
0.0050354772259098195
0.007385366598001068
0.009063859006637675
0.010406652933546959
0.011078049897001601
0.010406652933546959
0.011413748378728923
0.010406652933546959
0.009735255970092317
0.009063859006637675
0.007049668116273747
0.0050354772259098195
0.004364080262455177
0.0023498893720912484
0.0016784924086366065
0.002014190890363927
0.0030212863355458916
0.0023498893720912484
0.003692683299000534
0.0050354772259098195
0.0050354772259098195
0.006042572671091783
0.007721065079728388
0.009063859006637675
0.010406652933546959
0.010406652933546959
0.010406652933546959
0.010406652933546959
0.010406652933546959
0.010406652933546959
0.009399557488364994
0.007721065079728388
0.006378271152819104
0.0050354772259098195
0.0030212863355458916
0.0023498893720912484
0.0030212863355458916
0.0023498893720912484
0.003356984817273213
0.003692683299000534
0.0050354772259098195
0.0050354772259098195
0.006713969634546426
0.007721065079728388
0.009063859006637675
0.010406652933546959
0.011413748378728923
0.011078049897001601
0.010406652933546959
0.009735255970092317
0.009063859006637675
0.008392462043183033
0.007385366598001068
0.006042572671091783
0.003692683299000534
0.002014190890363927
0.0016784924086366065
0.0016784924086366065
0.0023498893720912484
0.0023498893720912484
0.0030212863355458916
0.003692683299000534
0.0050354772259098195
0.006378271152819104
0.007049668116273747
0.009063859006637675
0.011078049897001601
0.011749446860456245
0.011413748378728923
0.010406652933546959
0.010070954451819639
0.010406652933546959
0.009063859006637675
0.007049668116273747
0.006042572671091783
0.004364080262455177
0.0023498893720912484
0.0023498893720912484
0.0023498893720912484
0.0023498893720912484
0.003692683299000534
0.003692683299000534
0.003692683299000534
0.0050354772259098195
0.006042572671091783
0.006378271152819104
0.008728160524910353
0.010406652933546959
0.010406652933546959
0.011078049897001601
0.010406652933546959
0.009735255970092317
0.009399557488364994
0.009063859006637675
0.007721065079728388
0.0050354772259098195
0.004364080262455177
0.0023498893720912484
0.0023498893720912484
0.0023498893720912484
0.0023498893720912484
0.003356984817273213
0.003692683299000534
0.0050354772259098195
0.0050354772259098195
0.007049668116273747
0.007721065079728388
0.009735255970092317
0.010406652933546959
0.011749446860456245
0.011749446860456245
0.010406652933546959
0.010406652933546959
0.009735255970092317
0.009063859006637675
0.007049668116273747
0.005706874189364461
0.004364080262455177
0.0023498893720912484
0.002014190890363927
0.0016784924086366065
0.0023498893720912484
0.0023498893720912484
0.0030212863355458916
0.003692683299000534
0.0050354772259098195
0.006378271152819104
0.007721065079728388
0.009063859006637675
0.010406652933546959
0.010406652933546959
0.010406652933546959
0.010406652933546959
0.009063859006637675
0.009735255970092317
0.007721065079728388
0.006713969634546426
0.0050354772259098195
0.003692683299000534
0.0023498893720912484
0.0010070954451819635
0.0016784924086366065
0.0023498893720912484
0.0023498893720912484
0.003356984817273213
0.003692683299000534
0.004364080262455177
0.006378271152819104
0.007049668116273747
0.009063859006637675
0.010406652933546959
0.011749446860456245
0.011749446860456245
0.011078049897001601
0.010406652933546959
0.009063859006637675
0.009063859006637675
0.006378271152819104
0.0050354772259098195
0.0050354772259098195
0.0030212863355458916
0.0023498893720912484
0.0023498893720912484
0.0016784924086366065
0.003356984817273213
0.004364080262455177
0.004699778744182497
0.005706874189364461
0.006378271152819104
0.007721065079728388
0.009063859006637675
0.010406652933546959
0.011749446860456245
0.010406652933546959
0.010406652933546959
0.009735255970092317
0.009063859006637675
0.009063859006637675
0.007049668116273747
0.0050354772259098195
0.003692683299000534
0.0023498893720912484
0.0016784924086366065
0.0016784924086366065
0.0023498893720912484
0.003356984817273213
0.003356984817273213
0.004699778744182497
0.0050354772259098195
0.006378271152819104
0.007721065079728388
0.009063859006637675
0.010406652933546959
0.011413748378728923
0.011749446860456245
0.010406652933546959
0.010406652933546959
0.009063859006637675
0.009063859006637675
0.007385366598001068
0.006378271152819104
0.003692683299000534
0.0030212863355458916
0.0023498893720912484
0.002014190890363927
0.0023498893720912484
0.003356984817273213
0.003692683299000534
0.003692683299000534
0.0050354772259098195
0.006713969634546426
0.007721065079728388
0.008392462043183033
0.010406652933546959
0.010406652933546959
0.011078049897001601
0.010406652933546959
0.010406652933546959
0.009063859006637675
0.009063859006637675
0.007385366598001068
0.0050354772259098195
0.0023498893720912484
0.0023498893720912484
0.0023498893720912484
0.002014190890363927
0.0030212863355458916
0.003692683299000534
0.004364080262455177
0.004028381780727854
0.0050354772259098195
0.006378271152819104
0.008728160524910353
0.010070954451819639
0.010406652933546959
0.011078049897001601
0.011749446860456245
0.010070954451819639
0.009399557488364994
0.008392462043183033
0.008392462043183033
0.007385366598001068
0.0050354772259098195
0.004364080262455177
0.0023498893720912484
0.0023498893720912484
0.0023498893720912484
0.0030212863355458916
0.003356984817273213
0.003692683299000534
0.0050354772259098195
0.0050354772259098195
0.006378271152819104
0.007721065079728388
0.009735255970092317
0.010406652933546959
0.011413748378728923
0.011749446860456245
0.011749446860456245
0.010070954451819639
0.010070954451819639
0.010070954451819639
0.007721065079728388
0.006378271152819104
0.004699778744182497
0.0030212863355458916
0.0023498893720912484
0.0016784924086366065
0.0023498893720912484
0.0030212863355458916
0.003692683299000534
0.004364080262455177
0.0050354772259098195
0.006378271152819104
0.008392462043183033
0.009063859006637675
0.009735255970092317
0.010406652933546959
0.010406652933546959
0.010406652933546959
0.009063859006637675
0.009063859006637675
0.008392462043183033
0.007721065079728388
0.006378271152819104
0.0030212863355458916
0.0023498893720912484
0.0016784924086366065
0.0016784924086366065
0.0016784924086366065
0.0023498893720912484
0.0023498893720912484
0.003692683299000534
0.0050354772259098195
0.006713969634546426
0.007721065079728388
0.009063859006637675
0.010406652933546959
0.011078049897001601
0.010406652933546959
0.010406652933546959
0.010406652933546959
0.009063859006637675
0.009063859006637675
0.007721065079728388
0.0050354772259098195
0.003692683299000534
0.0023498893720912484
0.0023498893720912484
0.0023498893720912484
0.0023498893720912484
0.0030212863355458916
0.003692683299000534
0.004364080262455177
0.0050354772259098195
0.006378271152819104
0.007721065079728388
0.009063859006637675
0.010406652933546959
0.011078049897001601
0.011078049897001601
0.010406652933546959
0.010406652933546959
0.009735255970092317
0.008392462043183033
0.007049668116273747
0.006378271152819104
0.003692683299000534
0.0023498893720912484
0.0016784924086366065
0.0023498893720912484
0.0023498893720912484
0.0023498893720912484
0.003692683299000534
0.0050354772259098195
0.005706874189364461
0.006378271152819104
0.007721065079728388
0.009735255970092317
0.010406652933546959
0.010406652933546959
0.010406652933546959
0.010406652933546959
0.009063859006637675
0.008392462043183033
0.007721065079728388
0.007049668116273747
0.0050354772259098195
0.0023498893720912484
0.0023498893720912484
0.0023498893720912484
0.0023498893720912484
0.0023498893720912484
0.0023498893720912484
0.003692683299000534
0.004028381780727854
0.0050354772259098195
0.006378271152819104
0.007721065079728388
0.009063859006637675
0.011749446860456245
0.011749446860456245
0.010406652933546959
0.010406652933546959
0.010406652933546959
0.009063859006637675
0.007721065079728388
0.007721065079728388
0.006378271152819104
0.003692683299000534
0.0030212863355458916
0.0023498893720912484
0.0023498893720912484
0.0023498893720912484
0.003692683299000534
0.003692683299000534
0.004699778744182497
0.0050354772259098195
0.006378271152819104
0.007049668116273747
0.010070954451819639
0.010406652933546959
0.010406652933546959
0.010406652933546959
0.010406652933546959
0.010070954451819639
0.009063859006637675
0.008392462043183033
0.007049668116273747
0.006042572671091783
0.003692683299000534
0.0023498893720912484
0.0016784924086366065
0.0023498893720912484
0.0023498893720912484
0.0030212863355458916
0.003692683299000534
0.004364080262455177
0.0050354772259098195
0.006378271152819104
0.007721065079728388
0.009063859006637675
0.010406652933546959
0.010406652933546959
0.011078049897001601
0.010406652933546959
0.009735255970092317
