EMG Sensor 0
0.0
0.0
0.0
0.0
0.0
0.0
0.0
0.0
0.0
0.0
0.0
0.0
0.0
0.0
0.0
0.0
0.0
0.0
0.0
0.0
0.0
0.0
0.0
0.0
0.0
0.0
0.0
0.0
0.0
0.0
0.0
0.0
0.0
0.0
0.0
0.0
0.0
0.0
0.0
0.0
0.0
0.0
0.0
0.0
0.0
0.0
0.0
0.0
0.0
0.0
0.0
0.0
0.0
0.0
0.0
0.0
0.0
0.0
0.0
0.0
0.0
0.0
0.0
0.0
0.0
0.0
0.0
0.0
0.0
0.0
0.0
0.0
0.0
0.0
0.0
0.0
0.0
0.0
0.0
0.0
0.0
0.0
0.0
0.0
0.0
0.0
0.0
0.0
0.0
0.0
0.0
0.0
0.0
0.0
0.0
0.0
0.0
0.0
0.0
0.0
0.0
0.0
0.0
0.0
0.0
0.0
0.0
0.0
0.0
0.0
0.0
0.0
0.0
0.0
0.0
0.0
0.0
0.0
0.0
0.0
0.0
0.0
0.0
0.0
0.0
0.0
0.0
0.0
0.0
0.0
0.0
0.0
0.0
0.0
0.0
0.0
0.0
0.0
0.0
0.0
0.0
0.0
0.0
0.0
0.0
0.0
0.0
0.0
0.0
0.0
0.0
0.0
0.0
0.0
0.0
0.0
0.0
0.0
0.0
0.0
0.0
0.0
0.0
0.0
0.0
0.0
0.0
0.0
0.0
0.0
0.0
0.0
0.0
0.0
0.0
0.0
0.0
0.0
0.0
0.0
0.0
0.0
0.0
0.0
0.0
0.0
0.0
0.0
0.0
0.0
0.0
0.0
0.0
0.0
0.0
0.0
0.0
0.0
0.0
0.0
0.0
0.0
0.0
0.0
0.0
0.0
0.0
0.0
0.0
0.0
0.0
0.0
0.0
0.0
0.0
0.0
0.0
0.0
0.0
0.0
0.0
0.0
0.0
0.0
0.0
0.0
0.0
0.0
0.0
0.0
0.0
0.0
0.0
0.0
0.0
0.0
0.0
0.0
0.0
0.0
0.0
0.0
0.0
0.0
0.0
0.0
0.0
0.0
0.0
0.0
0.0
0.0
0.0
0.0
0.0
0.0
0.0
0.0
0.0
0.0
0.0
0.0
0.0
0.0
0.0
0.0
0.0
0.0
0.0
0.0
0.0
0.0
0.0
0.0
0.0
0.0
0.0
0.0
0.0
0.0
0.0
0.0
0.0
0.0
0.0
0.0
0.0
0.0
0.0
0.0
0.0
0.0
0.0
0.0
0.0
0.0
0.0
0.0
0.0
0.0
0.0
0.0
0.0
0.0
0.0
0.0
0.0
0.0
0.0
0.0
0.0
0.0
0.0
0.0
0.0
0.0
0.0
0.0
0.0
0.0
0.0
0.0
0.0
0.0
0.0
0.0
0.0
0.0
0.0
0.0
0.0
0.0
0.0
0.0
0.0
0.0
0.0
0.0
0.0
0.0
0.0
0.0
0.0
0.0
0.0
0.0
0.0
0.0
0.0
0.0
0.0
0.0
0.0
0.0
0.0
0.0
0.0
0.0
0.0
0.0
0.0
0.0
0.0
0.0
0.0
0.0
0.0
0.0
0.0
0.0
0.0
0.0
0.0
0.0
0.0
0.0
0.0
0.0
0.0
0.0
0.0
0.0
0.0
0.0
0.0
0.0
0.0
0.0
0.0
0.0
0.0
0.0
0.0
0.0
0.0
0.0
0.0
0.0
0.0
0.0
0.0
0.0
0.0
0.0
0.0
0.0
0.0
0.0
-8.088319218738079
-5.87371633478294
-4.069001297016861
-1.2618905928130004
4.400671396963454
10.496284428168153
10.971633478294041
10.97297627222095
10.97297627222095
10.97297627222095
10.97297627222095
10.681589990081635
8.392126344701305
6.506843671320667
3.181750209811551
-1.6737926298924237
-6.4084840161745635
-10.686961165789272
-10.985397116044862
-10.987747005416953
-10.988418402380407
-9.578484779125658
-7.597863736934462
-5.943541618982223
-3.2378118562600138
2.3831235217822533
8.57206073090715
10.968947890440223
10.97297627222095
10.97297627222095
10.97431906614786
10.968947890440223
8.224277103837643
6.058350499732967
4.248264286259251
0.8959792477302203
-4.196566720073243
-9.11689936675059
-10.982711528191043
-10.987747005416953
-10.988418402380407
-10.988754100862135
-10.988754100862135
-9.162890058747234
-7.261493858243687
-4.309025711451896
1.8641336690318149
8.652628366521705
10.970290684367132
10.97297627222095
10.97431906614786
10.97431906614786
10.97431906614786
8.784222171358813
6.911024643320363
5.049240863660638
1.4948653391317617
-3.629907682917525
-8.457251850156405
-10.980697337300677
-10.987075608453498
-10.98808270389868
-10.988754100862135
-9.547264820325017
-7.073502708476387
-5.051255054551004
-1.826535439078355
4.801495384145876
10.93806363012131
10.97297627222095
10.97297627222095
10.97297627222095
10.97431906614786
10.97431906614786
10.97566186007477
8.679484245059893
6.525642786297397
2.629526207370107
-3.114274814984359
-8.5579613946746
-10.981368734264134
-10.987411306935224
-10.98808270389868
-10.988754100862135
-9.98803692683299
-7.439749752040893
-5.433615625238422
-2.031311512932021
5.0673685816739145
10.95283436331731
10.97297627222095
10.97431906614786
10.97431906614786
10.97431906614786
10.97431906614786
10.97566186007477
8.518348973830777
5.988525215533684
1.8836041809719994
-4.63297474631876
-10.766857404440374
-10.985732814526589
-10.987411306935224
-10.988418402380407
-10.988754100862135
-10.98908979934386
-10.245853360799572
-8.020843823910887
-4.505745021744106
3.212298771648737
10.8789806973373
10.97297627222095
10.97297627222095
10.97297627222095
10.97431906614786
10.974990463111313
10.97431906614786
8.840619516289006
6.035523002975509
1.3676356145571067
-5.369497215228504
-10.93772793163958
-10.986068513008314
-10.98808270389868
-10.988754100862135
-10.988754100862135
-10.98942549782559
-10.98908979934386
-8.51532768749523
-4.48392462043183
3.7299458304722664
10.946120393682763
10.971633478294041
10.97297627222095
10.97297627222095
10.97431906614786
10.97297627222095
10.97431906614786
10.300907911802854
7.05806057831693
2.326054779888609
-4.404699778744182
-10.745037003128099
-10.986068513008314
-10.987747005416953
-10.98808270389868
-10.988754100862135
-10.98908979934386
-10.260288395513847
-7.672388799877927
-3.6487067978942544
4.469825284199282
10.958876935988403
10.971633478294041
10.97297627222095
10.97431906614786
10.97431906614786
10.97431906614786
10.97431906614786
10.564095521477075
7.3810025177386125
2.789990081635767
-3.8863813229571984
-10.210269321736478
-10.984725719081407
-10.987747005416953
-10.988418402380407
-10.988754100862135
-10.98908979934386
-10.229068436713204
-7.662989242389562
-3.8407263294422824
3.8615396353093767
10.939406424048217
10.971633478294041
10.97297627222095
10.97431906614786
10.97431906614786
10.97297627222095
10.974990463111313
10.063904783703364
7.08693064774548
2.8074464026855876
-3.3036087586785685
-9.266285191119248
-10.983382925154496
-10.987747005416953
-10.988418402380407
-10.988754100862135
-10.98908979934386
-9.897062638284885
-7.537102311741816
-3.9545281147478444
3.2566109712367437
10.674876020447089
10.970290684367132
10.97297627222095
10.97297627222095
10.97297627222095
10.97431906614786
10.97431906614786
9.372365911345083
6.774059662775616
2.752391851682307
-2.9806668192568853
-8.534462500953687
-10.982040131227588
-10.987075608453498
-10.98808270389868
-10.988418402380407
-10.98942549782559
-9.944396124208438
-7.643518730449379
-4.214694438086518
2.3602960250247955
9.513359273670558
10.970290684367132
10.97297627222095
10.97431906614786
10.97297627222095
10.973983367666131
10.97297627222095
8.645914396887159
6.324223697261005
2.4918898298619054
-2.9222552834363316
-8.147402151522089
-10.980025940337224
-10.987075608453498
-10.98808270389868
-10.988418402380407
-10.98908979934386
-9.655024032959485
-7.3212481879911495
-4.3392385748073545
1.7298542763408864
8.723796444647897
10.970290684367132
10.97297627222095
10.97431906614786
10.97431906614786
10.97431906614786
10.97297627222095
8.470008392462042
6.340337224383917
2.819531548027771
-2.2854352635996027
-7.374288548104066
-10.970290684367132
-10.98673990997177
-10.98808270389868
-10.988754100862135
-10.988754100862135
-9.44890516517891
-7.245380331120774
-4.227450980392156
1.5438773174639504
8.102082856488899
10.968947890440223
10.97297627222095
10.97297627222095
10.97431906614786
10.97431906614786
10.919264515144578
8.373327229724575
6.235599298084993
2.775890745403219
-2.041382467383841
-6.84119935912108
-10.94276340886549
-10.986068513008314
-10.98808270389868
-10.988418402380407
-10.988754100862135
-9.049423971923398
-7.003006027313648
-4.014618142977035
1.5512626840619517
7.867093919279774
10.968947890440223
10.97297627222095
10.97431906614786
10.97431906614786
10.97431906614786
10.554024567025253
8.190707255664911
6.104005493247882
2.711436636911574
-2.038696879530022
-6.8029297322041655
-10.92765697718776
-10.986068513008314
-10.987411306935224
-10.988754100862135
-10.98908979934386
-8.924544136720836
-6.780773632410162
-3.9548638132295717
1.465995269703212
7.761013199053941
10.967605096513314
10.97297627222095
10.97297627222095
10.97431906614786
10.97431906614786
9.76983291371023
7.61196307316701
5.568230716411078
2.246829938200961
-2.3952086671244377
-7.052689402609293
-10.940077821011673
-10.986404211490042
-10.987747005416953
-10.988754100862135
-10.659433890287632
-8.399511711299304
-6.473609521629663
-3.6272220950637064
1.809750514991989
7.861722743572136
10.967605096513314
10.97297627222095
10.97431906614786
10.97431906614786
10.97566186007477
9.517387655451284
7.424643320363164
5.409781033035782
2.1071793698023957
-2.3999084458686193
-6.973464560921645
-10.927321278706033
-10.986068513008314
-10.988418402380407
-10.98908979934386
-10.248203250171661
-8.06784161135271
-6.1879301136797125
-3.3287861448081175
2.1172503242542153
7.978210116731518
10.968947890440223
10.97297627222095
10.97431906614786
10.97431906614786
10.97566186007477
8.891645685511559
6.901625085831998
4.965316243228808
1.6754711223010603
-2.8933852140077816
-7.330983443961241
-10.95182726787213
-10.986404211490042
-10.987747005416953
-10.98908979934386
-10.129365987640194
-7.927183947508965
-6.056336308842602
-3.280445563439383
2.241794460975051
8.247104600595101
10.968947890440223
10.97297627222095
10.97297627222095
10.97431906614786
10.97431906614786
8.800335698481726
6.963393606469825
5.083482108796825
1.7869230182345308
-2.8208743419546805
-7.293720912489509
-10.949813076981764
-10.986404211490042
-10.987747005416953
-10.988754100862135
-9.739955748836499
-7.536766613260091
-5.685725185015641
-2.775890745403219
2.8061036087586784
8.845990691996642
10.970290684367132
10.97297627222095
10.97431906614786
10.97431906614786
10.97431906614786
9.35625238422217
7.288349736781872
5.399038681620508
1.9809567406729225
-2.7913328755626767
-7.511924925612267
-10.968612191958496
-10.987075608453498
-10.988418402380407
-10.98908979934386
-10.67353322652018
-8.433752956435493
-6.525307087815671
-3.6520637827115277
2.2018463416495004
8.62174410620279
10.970290684367132
10.97297627222095
10.97431906614786
10.97431906614786
10.97431906614786
9.716121156633859
7.399801632715343
5.30101472495613
1.6566720073243304
-3.416403448538949
-8.436438544289311
-10.981368734264134
-10.987411306935224
-10.988418402380407
-10.988754100862135
-10.98908979934386
-9.642938887617303
-7.586114290074005
-4.462439917601281
1.5573052567330432
8.381383993286029
10.968947890440223
10.97297627222095
10.97297627222095
10.97297627222095
10.97431906614786
10.441229877164874
7.602563515678644
5.482963302052338
1.9030746929121845
-3.4083466849774933
-8.781536583504996
-10.982375829709316
-10.987411306935224
-10.988418402380407
-10.98908979934386
-10.98908979934386
-10.546639200427252
-8.180636301213092
-4.773968108644235
1.548577096208133
8.730510414282444
10.970290684367132
10.97297627222095
10.97297627222095
10.97431906614786
10.974990463111313
10.975326161593042
8.40018310826276
6.005645838101778
2.109193560692759
-3.3640344853894857
-8.75736629282063
-10.982375829709316
-10.987411306935224
-10.988754100862135
-10.98908979934386
-10.98908979934386
-9.369680323491263
-7.350789654383154
-4.44498359655146
1.9534294651712827
9.26091401541161
10.971633478294041
10.97297627222095
10.97297627222095
10.97297627222095
10.97431906614786
10.97431906614786
8.79093614099336
6.3537651636530095
2.5462729839017317
-3.0045014114595254
-8.56803234912642
-10.982040131227588
-10.987411306935224
-10.988418402380407
-10.98908979934386
-10.768871595330738
-8.7459525444419
-6.889539940489814
-4.144197756923781
2.379095140001526
9.721492332341496
10.971633478294041
10.97297627222095
10.97431906614786
10.97431906614786
10.97431906614786
10.97566186007477
8.539833676661326
6.223178454261081
2.376409552147707
-3.3788052185854887
-8.853376058594643
-10.982711528191043
-10.987411306935224
-10.988418402380407
-10.98908979934386
-10.98908979934386
-9.501274128328374
-7.533409628442818
-4.375158312352178
2.2797283894102387
9.571099412527655
10.970290684367132
10.97431906614786
10.97431906614786
10.97431906614786
10.97431906614786
10.97431906614786
8.353185320820934
5.946898603799497
1.8305638208590829
-3.7618371862363613
-9.1256275272755
-10.983382925154496
-10.987411306935224
-10.988418402380407
-10.98908979934386
-10.98908979934386
-9.552300297550927
-7.568657969024186
-4.37985809109636
2.3401541161211568
9.511345082780194
10.970290684367132
10.97297627222095
10.97431906614786
10.97431906614786
10.97431906614786
10.759472037842372
8.091340505073624
5.779049362935837
1.721797512779431
-3.693018997482261
-8.994369420920119
-10.98304722667277
-10.987411306935224
-10.988754100862135
-10.98908979934386
-10.954512855725946
-8.908430609597925
-7.028183413443197
-4.150911726558328
2.397222858014801
9.640588998245212
10.971633478294041
10.97297627222095
10.97431906614786
10.97431906614786
10.97431906614786
10.814526588845656
8.170565346761272
5.965697718776226
1.9104600595101855
-3.7181963836118097
-9.081651026169222
-10.983382925154496
-10.987411306935224
-10.988418402380407
-10.98908979934386
-10.734630350194552
-8.721110856794079
-6.887861448081177
-4.248935683222705
2.283756771190966
9.63958190280003
10.970290684367132
10.97297627222095
10.97431906614786
10.97297627222095
10.97431906614786
10.768200198367284
8.163851377126726
5.944884412909133
1.8480201419089037
-3.7487449454489963
-9.055802243076217
-10.983382925154496
-10.987747005416953
-10.988418402380407
-10.98908979934386
-10.74235141527428
-8.737895780880445
-6.908339055466544
-4.1314412146181425
2.4643625543602656
9.726192111085679
10.970290684367132
10.97297627222095
10.97431906614786
10.97431906614786
10.97431906614786
10.97297627222095
8.329015030136567
6.022095063706416
1.9332875562676433
-3.644678416113527
-9.036667429617761
-10.983382925154496
-10.987411306935224
-10.988418402380407
-10.988754100862135
-10.988754100862135
-9.099443045700768
-7.215838864728771
-4.265049210345617
2.380437933928435
9.661738002594031
10.970290684367132
10.97297627222095
10.97431906614786
10.97431906614786
10.97297627222095
10.97431906614786
8.23837644007019
5.897215228503853
1.7748378728923475
-3.869596398870832
-9.275684748607613
-10.984054322117952
-10.987747005416953
-10.988754100862135
-10.988754100862135
-10.98908979934386
-9.021896696421761
-7.148699168383306
-4.739391165026321
1.578789959563592
9.078294041351949
10.970290684367132
10.97297627222095
10.97431906614786
10.97431906614786
10.97431906614786
10.046448462653542
7.675074387731746
5.443350881208515
1.3532005798428322
-4.160311284046692
-9.46031891355764
-10.984054322117952
-10.987411306935224
-10.988754100862135
-10.98908979934386
-9.497917143511101
-7.6233768215457385
-5.950591287098497
-4.164339665827421
1.0269016556038757
8.464637216754404
10.968947890440223
10.97297627222095
10.974990463111313
10.97431906614786
10.97431906614786
9.261585412375068
7.21718165865568
4.974715800717174
0.8617380025940338
-4.557106889448386
-9.720820935378041
-10.984725719081407
-10.987747005416953
-10.988418402380407
-9.619104295414663
-7.889250019073778
-6.270511940184633
-4.836408026245517
-3.511070420386053
0.1279011215381094
7.203082322423131
10.966262302586404
10.97297627222095
10.97297627222095
10.97431906614786
9.673151750972762
7.391744869153887
5.605157549401083
3.541283283741512
-0.4300297550926986
-5.581658655680171
-10.303257801174944
-10.985397116044862
-10.113588158999006
-8.369298847943845
-6.927138170443275
-5.544396124208438
-4.314732585641259
-3.216327153429465
-2.235416189822232
-0.37027542534523533
5.535667963683528
10.610421911955443
10.97297627222095
10.97297627222095
9.799374380102234
7.794583047226672
6.07043564507515
4.675272755016404
3.002822919050889
-0.6193636987869078
-5.380575265125504
-9.102128633554589
-9.018875410086212
-7.394430457007704
-6.194308384832532
-5.072068360418097
-4.028717479209583
-3.108567940794995
-2.2830853742275115
-1.544548714427405
0.870466163118944
7.046646829938202
10.963576714732586
10.97297627222095
10.97431906614786
10.844068055237658
8.608987563897156
6.76331731136034
5.349355306324865
3.558068207827878
-0.18429846646829937
-5.0747539482719155
-9.583855954833295
-10.984054322117952
-10.987747005416953
-9.390493629358357
-8.004394598306249
-6.666636148622873
-5.4493934538796065
-4.360723277637904
-3.1344167238879987
1.4874799725337604
8.447180895704586
10.970290684367132
10.97297627222095
10.97297627222095
10.97431906614786
10.1847562371252
7.718043793392844
5.972411688410772
3.8920881971465624
-0.18295567254139009
-5.491020065613794
-10.52213321126116
-10.985732814526589
-10.98808270389868
-10.988754100862135
-10.988754100862135
-9.555321583886473
-7.875822079804685
-6.378606851300831
-4.526894026092927
1.2162355992980851
8.63852903028916
10.970290684367132
10.97297627222095
10.97431906614786
10.97431906614786
10.97431906614786
8.902388036926833
6.832806897077898
4.671244373235676
0.5898222323949035
-4.986129549095903
-10.36267643244068
-10.985397116044862
-10.987747005416953
-10.988754100862135
-10.98942549782559
-10.509040970473793
-8.615030136568246
-6.918410009918364
-4.8733348592355235
1.013473716334783
8.727824826428625
10.970290684367132
10.97297627222095
10.97431906614786
10.97431906614786
10.97431906614786
10.27875181200885
7.725429159990843
5.416495002670329
1.3169451438162816
-4.282505531395437
-9.851071946288243
-10.984390020599678
-10.987411306935224
-10.988418402380407
-10.988754100862135
-10.879987792782483
-8.893324177920196
-7.1050583657587545
-5.380910963607233
-0.7187304493781949
7.226581216144044
10.967605096513314
10.97297627222095
10.97297627222095
10.97431906614786
10.97431906614786
10.97431906614786
8.4350957503624
5.949584191653314
1.747981994354162
-4.065308613717861
-9.874570840009156
-10.985061417563134
-10.987411306935224
-10.988418402380407
-10.98908979934386
-9.86752117189288
-7.983245593957428
-6.306431677729457
-4.802838178072785
-1.7419394216830701
5.855588616769665
10.963576714732586
10.97297627222095
10.97297627222095
10.973647669184405
10.97431906614786
10.712474250400547
7.9349050125886915
5.718623636224917
1.4948653391317617
-4.579262989242389
-10.443244068055236
-10.985397116044862
-10.98808270389868
-10.988418402380407
-9.819516289005874
-8.06314183260853
-6.441046768902113
-5.004257267109177
-3.71450370031281
-1.7580529488059815
4.949202716105897
10.950148775463493
10.971633478294041
10.97297627222095
10.97297627222095
10.97431906614786
8.985641260395209
7.048996719310292
4.796795605401694
0.34073395895323105
-5.526604104676889
-10.86655985351339
-10.986068513008314
-10.987747005416953
-9.300190737773708
-7.768062867170215
-6.287632562752727
-4.969344625009536
-3.790371557183184
-2.734935530632486
-1.3085526817730984
4.374486915388722
10.823926146334019
10.971633478294041
10.97297627222095
10.97431906614786
10.03436331731136
7.715358205539023
5.930785076676585
3.692347600518807
-0.7267872129396507
-6.4752880140383
-10.939406424048217
-10.986404211490042
-9.307576104371709
-7.872129396505684
-6.527656977187762
-5.271473258564125
-4.160311284046692
-3.1572442206454565
-2.2642862592507824
-1.2088502327000838
3.5876096742198826
9.851743343251698
10.970290684367132
10.97297627222095
10.46808575570306
8.310215915159837
6.318852521553368
4.565163653009842
2.7604486152437624
-1.4800946059357594
-7.1564202334630345
-10.289494163424123
-9.02793926909285
-7.514610513466087
-6.3665217059586485
-5.223132677195392
-4.201937895780881
-3.2901808194094757
-2.467719539177539
-1.737911039902342
-0.9349202716105898
3.30092317082475
9.478446631570916
10.971633478294041
10.97297627222095
9.86382848859388
7.799954222934311
5.9938963912413215
4.536964980544747
2.6315403982604715
-1.765102616922255
-7.27223620965896
-10.191470206759746
-8.93797207598993
-7.513267719539178
-6.416540779736019
-5.317799649042496
-4.336217288471809
-3.456015869382773
-2.6610818646524756
-1.9527580682078278
-1.1309681849393454
3.3741054398413053
9.795345998321508
10.971633478294041
10.97297627222095
10.63593499656672
8.369298847943845
6.423590447852292
4.891462577248799
2.7161364156557566
-1.9312733653772793
-7.7371786068513
-10.975326161593042
-10.518104829480428
-8.856061646448461
-7.622034027618829
-6.391363393606469
-5.272816052491035
-4.271763179980164
-3.365377279316396
-2.5543297474631874
-1.7056839856565194
2.615091172655833
9.479789425497826
10.971633478294041
10.97297627222095
10.97297627222095
8.992355230029755
6.893568322270543
5.24596017395285
3.065262836652171
-1.777523460746166
-8.069855802243076
-10.980697337300677
-10.987075608453498
-9.322011139085983
-8.018493934538796
-6.713633936064699
-5.529961089494162
-4.471168078126191
-3.51274891279469
-2.654032196536202
-1.8332494087129014
2.109193560692759
9.274341954680702
10.970290684367132
10.97297627222095
10.97431906614786
9.61943999389639
7.4441138323033496
5.742793926909285
3.464072632944228
-1.4686808575570305
-7.859708552681774
-10.980697337300677
-10.98673990997177
-9.484489204242008
-8.155458915083543
-6.82240024414435
-5.612207217517357
-4.532936598764018
-3.5560540169375146
-2.68055237659266
-1.8698405432211795
1.7405966277561609
9.089707789730678
10.970290684367132
10.97297627222095
10.97431906614786
10.42645914396887
7.953032730601969
6.214114595254443
3.817898832684825
-1.294789044022278
-7.983581292439153
-10.98170443274586
-10.987075608453498
-9.845365072098877
-8.472022583352407
-7.099015793087662
-5.846860456244754
-4.72965590905623
-3.7181963836118097
-2.8128175783932248
-1.986663614862287
1.4404821850919354
8.914473182269017
10.970290684367132
10.97431906614786
10.974990463111313
10.512397955291064
8.092683299000534
6.269840543221179
3.761501487754635
-1.4035553521019302
-8.156801709010452
-10.98170443274586
-10.987075608453498
-9.710414282444495
-8.343785763332571
-6.9738002594033714
-5.729365987640192
-4.620218204013122
-3.6151369497215224
-2.716807812619211
-1.8990463111314562
1.4894941634241243
8.914473182269017
10.970290684367132
10.97297627222095
10.97431906614786
10.382146944380864
7.994659342336155
6.169802395666437
3.7514305333028153
-1.4297398336766614
-8.19607843137255
-10.982040131227588
-10.987075608453498
-9.475425345235369
-8.133974212252996
-6.788158999008164
-5.569909208819714
-4.48258182650492
-3.4976424811169604
-2.6187838559548333
-1.815121690699626
1.595574883649958
9.07695124742504
10.970290684367132
10.97297627222095
10.97431906614786
10.478828107118334
8.091340505073624
6.25976958876936
3.7833218890669107
-1.4780804150453954
-8.348485542076752
-10.982375829709316
-10.987075608453498
-9.59694819562066
-8.247104600595101
-6.88886854352636
-5.657526512550545
-4.560463874265659
-3.5667963683527883
-2.679209582665751
-1.868162050812543
1.6721141374837871
9.294483863584343
10.970290684367132
10.97297627222095
10.973647669184405
10.903150988021668
8.333043411917295
6.470588235294118
3.8883955138475623
-1.6445868619821469
-8.723125047684443
-10.983382925154496
-10.987411306935224
-9.946074616617075
-8.552590218966964
-7.150041962310216
-5.88244449530785
-4.74845502403296
-3.7212176699473565
-2.8040894178683144
-1.9675288014038297
1.5156786449988557
9.146776531624322
10.970290684367132
10.97297627222095
10.97431906614786
10.819897764553293
8.256504158083468
6.336308842603189
3.7695582513160906
-1.895689326314183
-9.19746700236515
-10.984054322117952
-10.987411306935224
-9.606683451590753
-8.235355153734645
-6.8532845044632635
-5.6172426947432665
-4.508766308079652
-3.505699244678416
-2.6110627908751045
-1.8157930876630808
0.7751277943083849
8.276646066987107
10.970290684367132
10.97297627222095
10.97297627222095
10.443579766536965
7.915434500648508
6.010681315327688
3.2921950102998396
-2.511360341802091
-9.665094987411306
-10.984390020599678
-10.065583276112001
-8.576424811169602
-7.297749294270237
-6.032166018158236
-4.915632867933165
-3.9071946288242922
-2.9984588387884337
-2.1897611963073165
-1.4727092393377583
0.2628519111924925
7.068131532768749
10.967605096513314
10.97297627222095
10.97297627222095
9.419363698786906
7.186297398336765
5.399038681620508
2.677195391775387
-3.61043717097734
-9.82891584649424
-10.11828793774319
-8.328343633173112
-7.173876554512856
-6.030151827267871
-4.957930876630808
-4.011596856641488
-3.1498588540474555
-2.380437933928435
-1.6962844281681542
-1.0910200656137943
0.09567406729228656
5.929442282749675
10.958205539024949
10.97297627222095
10.29889372091249
8.382726787212938
6.432990005340657
4.767925535973143
2.068574044403754
-4.035767147325856
-9.170611123826962
-8.502235446707866
-7.034897383077744
-6.087220569161516
-5.085831998168917
-4.1817959868772405
-3.3781338216220345
-2.6473182269016555
-1.994384679942016
-1.4129549095902951
-0.9013504234378575
-0.1785915922789349
4.702128633554588
10.791699092088196
10.972304875257496
10.245181963836117
8.216891737239642
6.2221713588159
4.6215609979400325
1.896360723277638
-4.362066071564812
-9.120927748531319
-8.173586633096818
-6.840863660639352
-5.953612573434043
-4.99653620202945
-4.142854962996871
-3.3781338216220345
-2.681895170519569
-2.0578316929884797
-1.5029221026932171
-1.0121309224078736
-0.481727321278706
3.4744792858777753
10.194155794613565
10.971633478294041
10.67219043259327
8.75468070496681
6.700205996795605
4.989486533913176
1.9494010833905548
-4.549721522850384
-9.447898069733728
-8.509620813305867
-7.152056153200579
-6.247013046463722
-5.270130464637217
-4.394628824292362
-3.609765774013886
-2.894392309452964
-2.2515297169451434
-1.679499504081788
-1.171587701228351
-0.7046311131456473
2.4153505760280765
9.666437781338216
10.971633478294041
10.962233920805676
9.291798275730526
7.288349736781872
5.1606927595941094
2.814160372320134
-3.969634546425574
-9.7510337987335
-8.836926832990006
-7.3937590600442515
-6.48535896849012
-5.479606317235064
-4.579262989242389
-3.773586633096818
-3.035721370260166
-2.3730525673304337
-1.7822232394903488
-1.2598764019226367
-0.797283894102388
1.3411154345006484
8.672770275425346
10.970290684367132
10.97297627222095
9.955138475623713
7.8899214160372315
6.079835202563515
3.0558632791638054
-4.193209735255969
-9.897398336766614
-8.947707331960022
-7.505546654459448
-6.581033035782406
-5.561181048294804
-4.649759670405127
-3.834012359807736
-3.0887617303730828
-2.4187075608453497
-1.820492866407263
-1.2914320592050048
-0.8234683756771191
0.7539787899595636
7.975860227359426
10.970290684367132
10.97297627222095
10.576852063782711
8.45389486533913
6.547127489127947
3.3432211795223927
-4.099885557335775
-10.068604562447547
-9.140398260471503
-7.660639353017471
-6.72605477988861
-5.691096360723277
-4.763225757228962
-3.932707713435569
-3.1740291447318225
-2.491218432898451
-1.8822613870450904
-1.3431296253910123
-0.8657663843747615
0.4938124666208897
7.586449988555734
10.969619287403678
10.97297627222095
10.97431906614786
8.823163195239184
6.533699549858853
3.7024185549706266
-3.78097199969482
-10.227725642786297
-9.368673228046081
-7.828824292362859
-6.884504463263903
-5.830075532158388
-4.88239871824216
-4.035431448844129
-3.259967956054017
-2.5644007019150066
-1.9420157167925538
-1.3901274128328374
-0.9030289158464941
0.34979781795986875
7.45284199282826
10.968947890440223
10.97297627222095
10.97297627222095
8.809735255970091
6.846570534828716
3.5231555657282367
-4.530922407873654
-10.341527428091856
-9.098771648737316
-7.665003433279926
-6.723033493553062
-5.674311436636911
-4.745769436179141
-3.9105516136415654
-3.1478446631570915
-2.4633554589150832
-1.851377126726177
-1.3095597772182803
-0.8315251392385747
0.2212252994583047
6.963393606469825
10.967605096513314
10.97297627222095
10.97297627222095
8.839276722362095
6.857984283207446
3.334493018997483
-4.6927290760662235
-10.039734493018997
-8.702311741817349
-7.3578393224994265
-6.444068055237659
-5.430594338902876
-4.536293583581291
-3.7319600213626303
-2.998123140306706
-2.3408255130846114
-1.7533531700617988
-1.2336919203479058
-0.7751277943083849
0.0882887006942855
6.35107957579919
10.964919508659495
10.97297627222095
10.911207751583124
8.876874952315557
6.894911116197452
3.5540398260471497
-4.711192492561226
-9.964873731593803
-8.472022583352407
-7.199053940642405
-6.310124361028458
-5.316792553597313
-4.449683375295643
-3.664484626535439
-2.948439765011063
-2.3065842679484247
-1.7328755626764323
-1.2252994583047228
-0.777477683680476
-0.05270466163118945
5.916014343480582
10.960891126878767
10.97297627222095
10.97297627222095
8.993698023956663
7.005020218204012
3.5070420386053254
-4.866620889600976
-9.950774395361258
-8.454901960784312
-7.2027466239414055
-6.314152742809186
-5.3265278095674065
-4.463782711528191
-3.6812695506218045
-2.9685816739147017
-2.3287403677424274
-1.756710154879072
-1.2504768444342718
-0.804669260700389
-0.2192111085679408
5.05662623025864
10.91792172121767
10.97297627222095
10.97431906614786
9.160204470893415
7.111772335393302
3.490257114518959
-4.989486533913176
-9.781918059052414
-8.217563134203097
-7.026169222552834
-6.152346074616617
-5.186205844205387
-4.3456168459601745
-3.5815671015487904
-2.885999847409781
-2.2616006713969634
-1.705012588693065
-1.2115358205539022
-0.7751277943083849
-0.32428473334859237
3.8883955138475623
10.308964675364308
10.97297627222095
10.973647669184405
9.140062561989774
7.14332799267567
3.3831692988479443
-5.1566643778133825
-9.264942397192339
-7.602227817196918
-6.550820172426946
-5.718623636224917
-4.810223544670786
-4.02636758983749
-3.3103227283131154
-2.6604104676890215
-2.0776379034103916
-1.5579766536964978
-1.098069733730068
-0.6945601586938277
-0.32562752727550165
2.682566567483024
9.058152132448312
10.970290684367132
10.607736324101625
8.939986266880291
7.0547035934996565
3.3647058823529417
-5.0935530632486445
-8.546883344777601
-6.868726634622721
-5.969054703593499
-5.195605401693751
-4.3644159609369035
-3.6537422751201643
-3.0021515220874337
-2.4099794003204393
-1.8809185931181807
-1.407583733882658
-0.9913176165407797
-0.6240634775310901
-0.30112153810940717
1.6110170138094146
7.626733806363012
10.70978866254673
10.14581521324483
8.503578240634774
6.709605554283969
2.84974441138323
-5.299671931029222
-7.63076218814374
-6.02914473182269
-5.308400091554131
-4.592690928511482
-3.8554970626382854
-3.2260624093995576
-2.646982528419928
-2.121950102998398
-1.6519722285801481
-1.2330205233844511
-0.8657663843747615
-0.5414816510261692
-0.2571450370031281
0.8321965362020294
6.132204165712977
9.871885252155337
9.679865720607308
8.214877546349278
6.462531471732661
2.500617990386816
-5.213061722743572
-6.840863660639352
-5.3728542000457775
-4.771953917753872
-4.112642099641413
-3.4566872663462274
-2.8980849927519645
-2.379095140001526
-1.9111314564736401
-1.4908369573510336
-1.1175402456702526
-0.7892271305409322
-0.5011978332188906
-0.2480811779964904
0.5065690089265278
5.354726482032501
9.559014267185473
9.82623025864042
8.502235446707866
6.87141222247654
2.906813153276875
-5.18956282902266
-7.007705806057832
-5.50411230640116
-4.909254596780346
-4.2553139543755245
-3.597009231708247
-3.0350499732967116
-2.5133745326924544
-2.0393682764934766
-1.614373998626688
-1.2357061112382697
-0.9033646143282215
-0.6099641412985427
-0.3508049134050507
0.8308537422751202
6.732433051041428
10.908522163729305
10.97297627222095
9.627496757457848
7.835538261997406
3.5647821774624244
-5.896879530022126
-8.642557412069888
-6.850598916609445
-6.094605935759518
-5.3308918898298625
-4.532265201800564
-3.8501258869306474
-3.2169985503929195
-2.640604257267109
-2.1206073090714885
-1.6546578164339665
-1.2437628747997254
-0.879865720607309
-0.556923781185626
1.8668192568856334
9.258228427557793
10.970290684367132
10.97297627222095
10.97297627222095
9.525444419012743
4.539650568398565
-6.6182955672541395
-10.977676050965131
-9.135362783245595
-8.010772869459066
-7.060746166170748
-6.013366903181505
-5.111345082780194
-4.280155642023347
-3.5191271839475085
-2.8336308842603186
-2.2189669642175933
-1.6737926298924237
-1.190051117723354
-0.7204089417868313
4.134798199435416
10.93537804226749
10.971633478294041
10.97297627222095
10.97297627222095
10.97431906614786
6.269169146257725
-6.521278706034943
-10.982040131227588
-10.987411306935224
-10.06793316548409
-8.907087815671014
-7.577721828030823
-6.4101625085832
-5.3496910048065915
-4.376501106279087
-3.500328068970779
-2.715465018692302
-2.0172121766994735
-1.398184176394293
-0.703288319218738
5.890501258869307
10.964919508659495
10.971633478294041
10.97297627222095
10.97297627222095
10.97297627222095
7.3474326695658805
-6.396063172350652
-10.982040131227588
-10.987075608453498
-10.987747005416953
-9.903440909437704
-8.385412375066759
-7.034897383077744
-5.8186617837796595
-4.7054856183718625
-3.7024185549706266
-2.8061036087586784
-2.010498207064927
-1.3068741893644615
-0.41660181582360567
7.1043869687953
10.967605096513314
10.97297627222095
10.97297627222095
10.97431906614786
10.97431906614786
8.179964904249637
-5.981139848935683
-10.982040131227588
-10.987075608453498
-10.98808270389868
-10.196169985503929
-8.584145876249332
-7.1480277714198515
-5.8616311894407565
-4.684672312504768
-3.62923628595407
-2.6839093614099334
-1.8466773479819942
-1.105455100328069
-0.02853437094682231
8.09939726863508
10.970290684367132
10.97297627222095
10.97297627222095
10.97431906614786
10.97297627222095
9.225329976348515
-5.218432898451209
-10.981368734264134
-10.987075608453498
-10.98808270389868
-10.465064469367514
-8.79227893492027
-7.291706721599145
-5.951934081025406
-4.7262989242389555
-3.625879301136797
-2.643625543602655
-1.77080949111162
-0.9993743801022354
0.18765545128557257
8.652628366521705
10.970290684367132
10.972304875257496
10.97297627222095
10.97297627222095
10.973647669184405
9.871885252155337
-5.521904325932708
-10.98170443274586
-10.987075608453498
-10.988418402380407
-10.98808270389868
-9.335774776836805
-7.728786144808116
-6.295689326314183
-4.98277256427863
-3.8044708934157323
-2.752391851682307
-1.8178072785534445
-0.9913176165407797
1.2511482413977264
10.666819256885633
10.971633478294041
10.97297627222095
10.97297627222095
10.97297627222095
10.97431906614786
10.97431906614786
-1.194415197985809
-10.978347447928588
-10.987075608453498
-10.98808270389868
-10.988754100862135
-10.988754100862135
-10.988754100862135
-9.279041733424886
-7.493125810635539
-5.873044937819485
-4.416784924086366
-3.12166018158236
-1.7600671396963452
7.296406500343329
10.970290684367132
10.97297627222095
10.97297627222095
10.97297627222095
10.97297627222095
10.97431906614786
10.974990463111313
-3.762844281681544
-10.981368734264134
-10.987747005416953
-10.988418402380407
-10.98908979934386
-10.988754100862135
-10.98942549782559
-10.98942549782559
-10.431158922713053
-8.153780422674906
-6.112062256809338
-4.29358358129244
-2.669810025177386
2.8947280079346913
10.963576714732586
10.97297627222095
10.97431906614786
10.97297627222095
10.97431906614786
10.97431906614786
10.97431906614786
-2.068238345922026
-10.979690241855495
-10.987411306935224
-10.98808270389868
-10.988754100862135
-10.988754100862135
-10.80244144350347
-8.519020370794232
-6.457160296025025
-4.616861219195849
-2.971938658731975
-1.5143358510719462
-0.22592507820248725
3.697718776226444
10.964248111696039
10.971633478294041
10.97297627222095
10.97297627222095
10.97431906614786
10.97297627222095
10.97431906614786
-1.7714808880750743
-10.979018844892042
-10.98673990997177
-10.98808270389868
-10.988754100862135
-10.98908979934386
-9.438834210727093
-7.3685816739147025
-5.527611200122072
-3.8716105897611963
-2.3925230792706187
-1.08397039749752
0.07217517357137408
2.8061036087586784
10.958205539024949
10.971633478294041
10.97297627222095
10.97297627222095
10.97297627222095
10.97297627222095
10.97431906614786
-1.3753566796368353
-10.978347447928588
-10.98673990997177
-10.98808270389868
-10.988418402380407
-10.988754100862135
-9.089372091248949
-7.110765239948118
-5.346334019989318
-3.7547875181200885
-2.3341115434500646
-1.0725566491187917
0.03860532539864195
1.9769283588921953
10.923292896925307
10.971633478294041
10.97297627222095
10.97431906614786
10.97297627222095
10.97431906614786
10.974990463111313
-1.159838254367895
-10.978347447928588
-10.986404211490042
-10.98808270389868
-10.988754100862135
-10.98908979934386
-9.015854123750666
-7.062088960097657
-5.321156633859769
-3.7487449454489963
-2.346196688792248
-1.1020981155107958
-0.0016784924086366065
1.6210879682612342
10.826611734187837
10.970290684367132
10.97297627222095
10.97431906614786
10.97297627222095
10.97297627222095
10.97431906614786
0.138979171435111
-10.97566186007477
-10.98673990997177
-10.987747005416953
-10.988754100862135
-10.988418402380407
-8.99034103913939
-7.05302510109102
-5.322499427786679
-3.758815899900816
-2.36231021591516
-1.1229114213778897
-0.02652018005645838
1.2075074387731746
9.920897230487526
10.970290684367132
10.97297627222095
10.97297627222095
10.97297627222095
10.97297627222095
10.97431906614786
0.9409628442816814
-10.973983367666131
-10.98673990997177
-10.987747005416953
-10.988418402380407
-10.988754100862135
-9.262928206301975
-7.289021133745326
-5.528282597085526
-3.9374074921797515
-2.514045929655909
-1.2511482413977264
-0.13327229724574652
1.0947127489127948
9.807431143663692
10.971633478294041
10.97297627222095
10.97431906614786
10.97431906614786
10.97431906614786
10.97431906614786
1.5881895170519569
-10.972640573739222
-10.986068513008314
-10.987747005416953
-10.988418402380407
-10.988754100862135
-9.52309452964065
-7.501182574196994
-5.701167315175097
-4.075043869687952
-2.6191195544365606
-1.3273517967498283
-0.1802700846875715
1.077256427862974
9.902769512474249
10.970290684367132
10.97297627222095
10.97431906614786
10.97431906614786
10.97431906614786
10.97431906614786
2.329411764705882
-10.969954985885403
-10.986404211490042
-10.98808270389868
-10.988754100862135
-10.98908979934386
-10.020263981078811
-7.916777294575418
-6.035523002975509
-4.3456168459601745
-2.8292668039978635
-1.4834515907530326
-0.29172198062104215
1.0101167315175097
9.964538033112078
10.970290684367132
10.97297627222095
10.97431906614786
10.97431906614786
10.97431906614786
10.97431906614786
3.285481040665293
-10.965255207141222
-10.98673990997177
-10.987747005416953
-10.988418402380407
-10.988754100862135
-10.433844510566871
-8.260532539864194
-6.307438773174639
-4.555092698558022
-2.982009613183795
-1.584161135271229
-0.3467765316243228
1.0087739375906004
10.120302128633552
10.970290684367132
10.97297627222095
10.97431906614786
10.97431906614786
10.97431906614786
10.973647669184405
3.74203097581445
-10.962569619287402
-10.986404211490042
-10.987747005416953
-10.988754100862135
-10.988754100862135
-10.583566033417258
-8.374670023651483
-6.378606851300831
-4.590676737621119
-2.985366598001068
-1.5579766536964978
-0.29575036240177
1.024216067750057
9.925597009231707
10.970290684367132
10.97297627222095
10.97297627222095
10.97431906614786
10.97431906614786
10.97431906614786
4.009246967269398
-10.960555428397038
-10.986404211490042
-10.98808270389868
-10.988754100862135
-10.98908979934386
-10.62452124818799
-8.392462043183032
-6.369207293812465
-4.55912108033875
-2.9336690318150604
-1.4901655603875792
-0.2124971389333944
1.0614785992217899
9.572442206454566
10.971633478294041
10.97297627222095
10.97297627222095
10.97431906614786
10.974990463111313
10.97297627222095
4.218051422903791
-10.958876935988403
-10.986068513008314
-10.98808270389868
-10.988418402380407
-10.988754100862135
-10.193820096131835
-7.999023422598611
-6.024780651560235
-4.250278477149615
-2.662424658579385
-1.2531624322880903
-0.007721065079728388
1.1638666361486227
9.114549477378498
10.971633478294041
10.97297627222095
10.97297627222095
10.97431906614786
10.974990463111313
10.97431906614786
8.748638132295719
-10.823590447852292
-10.985732814526589
-10.987411306935224
-10.988418402380407
-10.988754100862135
-10.98908979934386
-10.825268940260928
-8.462623025864042
-6.298710612649729
-4.367101548790722
-2.64798962386511
-1.1255970092317082
0.9731898985275043
10.9367208361944
10.97297627222095
10.97431906614786
10.97431906614786
10.97566186007477
10.974990463111313
10.97431906614786
8.145052262149994
-10.89274433508812
-10.985732814526589
-10.988418402380407
-10.98908979934386
-10.98908979934386
-10.98942549782559
-10.98942549782559
-10.98908979934386
-10.98908979934386
-10.98942549782559
-8.386755168993668
-5.598779278248264
-2.2253452353704124
10.873609521629662
10.971633478294041
10.97297627222095
10.973983367666131
10.97431906614786
10.97431906614786
10.97431906614786
9.937682154573892
-10.672861829556725
-10.985732814526589
-10.988418402380407
-10.988754100862135
-10.98942549782559
-10.98942549782559
-10.98942549782559
-10.98942549782559
-10.98908979934386
-8.998733501182572
-5.820675974670023
-2.952468146791791
-0.06210421911955444
10.892408636606392
10.97297627222095
10.97431906614786
10.97431906614786
10.974990463111313
10.97431906614786
10.974990463111313
10.97431906614786
-7.302449073014419
-10.983382925154496
-10.987747005416953
-10.98908979934386
-10.98908979934386
-10.98908979934386
-10.98908979934386
-10.98908979934386
-10.98908979934386
-7.522667277027542
-4.3916075379568165
-1.5546196688792249
1.1531242847333487
10.915236133363852
10.97297627222095
10.97431906614786
10.97431906614786
10.974990463111313
10.974990463111313
10.974990463111313
10.97431906614786
-8.499549858854047
-10.984390020599678
-10.98808270389868
-10.98908979934386
-10.98942549782559
-10.98942549782559
-10.98942549782559
-10.98908979934386
-10.218997482261386
-6.645822842755779
-3.5345693141069656
-0.7173876554512856
3.5392690928511485
10.967605096513314
10.97297627222095
10.97431906614786
10.97566186007477
10.97431906614786
10.974990463111313
10.97431906614786
10.97431906614786
-8.242404821850918
-10.984054322117952
-10.987411306935224
-10.988754100862135
-10.98908979934386
-10.98908979934386
-10.98908979934386
-10.98942549782559
-8.546547646295872
-5.304371709773403
-2.37976653696498
0.22793926909285112
3.6265506981002518
10.966262302586404
10.97297627222095
10.974990463111313
10.97431906614786
10.97297627222095
10.97297627222095
10.97431906614786
10.97431906614786
-7.549858854047455
-10.983382925154496
-10.98808270389868
-10.988754100862135
-10.98908979934386
-10.98908979934386
-10.98908979934386
-10.899458304722666
-7.469291218432899
-4.471168078126191
-1.747981994354162
0.6522621499961851
3.4103608758678563
10.963576714732586
10.97297627222095
10.97431906614786
10.974990463111313
10.97431906614786
10.97431906614786
10.974990463111313
10.97431906614786
-7.175219348439765
-10.983382925154496
-10.987747005416953
-10.988418402380407
-10.98942549782559
-10.98908979934386
-10.98908979934386
-9.58452735179675
-6.524971389333944
-3.7574731059739075
-1.268604562447547
0.9134355687800411
3.211627374685283
10.95686274509804
10.97297627222095
10.97566186007477
10.974990463111313
10.97431906614786
10.97431906614786
10.97431906614786
10.97431906614786
-6.779430838483253
-10.98304722667277
-10.987411306935224
-10.988754100862135
-10.988418402380407
-10.98908979934386
