EMG Sensor 0
0.0
0.0
0.0
0.0
0.0
0.0
0.0
0.0
0.0
0.0
0.0
0.0
0.0
0.0
0.0
0.0
0.0
0.0
0.0
0.0
0.0
0.0
0.0
0.0
0.0
0.0
0.0
0.0
0.0
0.0
0.0
0.0
0.0
0.0
0.0
0.0
0.0
0.0
0.0
0.0
0.0
0.0
0.0
0.0
0.0
0.0
0.0
0.0
0.0
0.0
0.0
0.0
0.0
0.0
0.0
0.0
0.0
0.0
0.0
0.0
0.0
0.0
0.0
0.0
0.0
0.0
0.0
0.0
0.0
0.0
0.0
0.0
0.0
0.0
0.0
0.0
0.0
0.0
0.0
0.0
0.0
0.0
0.0
0.0
0.0
0.0
0.0
0.0
0.0
0.0
0.0
0.0
0.0
0.0
0.0
0.0
0.0
0.0
0.0
0.0
0.0
0.0
0.0
0.0
0.0
0.0
0.0
0.0
0.0
0.0
0.0
0.0
0.0
0.0
0.0
0.0
0.0
0.0
0.0
0.0
0.0
0.0
0.0
0.0
0.0
0.0
0.0
0.0
0.0
0.0
0.0
0.0
0.0
0.0
0.0
0.0
0.0
0.0
0.0
0.0
0.0
0.0
0.0
0.0
0.0
0.0
0.0
0.0
0.0
0.0
0.0
0.0
0.0
0.0
0.0
0.0
0.0
0.0
0.0
0.0
0.0
0.0
0.0
0.0
0.0
0.0
0.0
0.0
0.0
0.0
0.0
0.0
0.0
0.0
0.0
0.0
0.0
0.0
0.0
0.0
0.0
0.0
0.0
0.0
0.0
0.0
0.0
0.0
0.0
0.0
0.0
0.0
0.0
0.0
0.0
0.0
0.0
0.0
0.0
0.0
0.0
0.0
0.0
0.0
0.0
0.0
0.0
0.0
0.0
0.0
0.0
0.0
0.0
0.0
0.0
0.0
0.0
0.0
0.0
0.0
0.0
0.0
0.0
0.0
0.0
0.0
0.0
0.0
0.0
0.0
0.0
0.0
0.0
0.0
0.0
0.0
0.0
0.0
0.0
0.0
0.0
0.0
0.0
0.0
0.0
0.0
0.0
0.0
0.0
0.0
0.0
0.0
0.0
0.0
0.0
0.0
0.0
0.0
0.0
0.0
0.0
0.0
0.0
0.0
0.0
0.0
0.0
0.0
0.0
0.0
0.0
0.0
0.0
0.0
0.0
0.0
0.0
0.0
0.0
0.0
0.0
0.0
0.0
0.0
0.0
0.0
0.0
0.0
0.0
0.0
0.0
0.0
0.0
0.0
0.0
0.0
0.0
0.0
0.0
0.0
0.0
0.0
0.0
0.0
0.0
0.0
0.0
0.0
0.0
0.0
0.0
0.0
0.0
0.0
0.0
0.0
0.0
0.0
0.0
0.0
0.0
0.0
0.0
0.0
0.0
0.0
0.0
0.0
0.0
0.0
0.0
0.0
0.0
0.0
0.0
0.0
0.0
0.0
0.0
0.0
0.0
0.0
0.0
0.0
0.0
0.0
0.0
0.0
0.0
0.0
0.0
0.0
0.0
0.0
0.0
0.0
0.0
0.0
0.0
0.0
0.0
0.0
0.0
0.0
0.0
0.0
0.0
0.0
0.0
0.0
0.0
0.0
0.0
0.0
0.0
0.0
0.0
0.0
0.0
0.0
0.0
0.0
0.0
0.0
0.0
0.0
0.0
0.0
0.0
0.0
0.0
0.0
0.0
0.0
0.0
0.0
0.0
0.0
0.0
0.0
0.0
0.0
0.0
0.0
0.0
0.0
0.0
0.0
0.0
0.0
0.0
0.0
0.0
0.0
0.0
0.0
0.0
0.0
0.0
0.0
0.0
0.0
0.0
0.0
0.0
0.0
0.0
0.0
0.0
0.0
0.0
0.0
0.0
0.0
0.0
0.0
0.0
0.0
0.0
0.0
0.0
0.0
0.0
0.0
0.0
0.0
0.0
0.0
0.0
0.0
0.0
0.0
0.0
0.0
0.0
0.0
0.0
0.0
0.0
0.0
0.0
0.0
0.0
0.0
0.0
0.0
0.0
0.0
0.0
0.0
0.0
0.0
0.0
0.0
0.0
0.0
0.0
0.0
0.0
0.0
0.0
0.0
0.0
0.0
0.0
0.0
0.0
0.0
0.0
0.0
0.0
0.0
0.0
0.0
0.0
0.0
0.0
0.0
0.0
0.0
0.0
0.0
0.0
0.0
0.0
0.0
0.0
0.0
0.0
0.0
0.0
0.0
0.0
0.0
0.0
0.0
0.0
0.0
0.0
0.0
0.0
0.0
0.0
0.0
0.0
0.0
0.0
0.0
0.0
0.0
0.0
0.0
0.0
0.0
0.0
0.0
0.0
0.0
0.0
0.0
0.0
0.0
0.0
0.0
0.0
0.0
0.0
0.0
0.0
0.0
0.0
0.0
0.0
0.0
0.0
0.0
0.0
0.0
0.0
0.0
0.0
0.0
0.0
0.0
0.0
0.0
0.0
0.0
0.0
0.0
0.0
0.0
0.0
0.0
0.0
0.0
0.0
0.0
0.0
0.0
0.0
0.0
0.0
0.0
0.0
0.0
0.0
0.0
0.0
0.0
0.0
0.0
0.0
0.0
0.0
0.0
0.0
0.0
0.0
0.0
0.0
0.0
0.0
0.0
0.0
0.0
0.0
0.0
0.0
0.0
0.0
0.0
0.0
0.0
0.0
0.0
0.0
0.0
0.0
0.0
0.0
0.0
0.0
0.0
0.0
0.0
0.0
0.0
0.0
0.0
0.0
0.0
0.0
0.0
0.0
0.0
0.0
0.0
0.0
0.0
0.0
0.0
0.0
0.0
0.0
0.0
0.0
0.0
0.0
0.0
0.0
0.0
0.0
0.0
0.0
0.0
0.0
0.0
0.0
0.0
0.0
0.0
0.0
0.0
0.0
0.0
0.0
0.0
0.0
0.0
0.0
0.0
0.0
0.0
0.0
0.0
0.0
0.0
0.0
0.0
-0.0030212863355458916
0.010070954451819639
0.013092240787365528
0.013092240787365528
0.013092240787365528
0.013092240787365528
0.011749446860456245
0.011078049897001601
0.011413748378728923
0.011749446860456245
0.009399557488364994
0.004364080262455177
-0.0003356984817273213
-0.0030212863355458916
-0.004364080262455177
-0.004364080262455177
-0.003356984817273213
-0.0016784924086366065
-0.0003356984817273213
0.0010070954451819635
0.003692683299000534
0.007049668116273747
0.011078049897001601
0.013092240787365528
0.01376363775082017
0.01376363775082017
0.012420843823910887
0.011749446860456245
0.011749446860456245
0.011413748378728923
0.011749446860456245
0.011749446860456245
0.006378271152819104
0.0003356984817273213
-0.0030212863355458916
-0.003692683299000534
-0.003356984817273213
-0.0030212863355458916
-0.0016784924086366065
-0.0006713969634546426
0.0010070954451819635
0.003692683299000534
0.007721065079728388
0.011749446860456245
0.013092240787365528
0.013092240787365528
0.013092240787365528
0.013092240787365528
0.013092240787365528
0.011749446860456245
0.012085145342183566
0.013092240787365528
0.012420843823910887
0.007385366598001068
0.0010070954451819635
-0.0023498893720912484
-0.004364080262455177
-0.004364080262455177
-0.003692683299000534
-0.0023498893720912484
-0.0016784924086366065
0.0013427939269092851
0.003692683299000534
0.007049668116273747
0.011078049897001601
0.012756542305638208
0.013092240787365528
0.013092240787365528
0.013092240787365528
0.012756542305638208
0.013092240787365528
0.012420843823910887
0.014435034714274816
0.013092240787365528
0.009063859006637675
0.0023498893720912484
-0.0030212863355458916
-0.004364080262455177
-0.0050354772259098195
-0.004364080262455177
-0.0030212863355458916
-0.0016784924086366065
-0.0003356984817273213
0.003356984817273213
0.007721065079728388
0.010406652933546959
0.011749446860456245
0.013092240787365528
0.013092240787365528
0.012420843823910887
0.012420843823910887
0.011749446860456245
0.011749446860456245
0.01376363775082017
0.014435034714274816
0.009735255970092317
0.002014190890363927
-0.0030212863355458916
-0.005706874189364461
-0.005706874189364461
-0.004699778744182497
-0.003692683299000534
-0.0023498893720912484
-0.0003356984817273213
0.003356984817273213
0.007049668116273747
0.009063859006637675
0.009735255970092317
0.012420843823910887
0.012756542305638208
0.013092240787365528
0.013092240787365528
0.011749446860456245
0.011749446860456245
0.014435034714274816
0.014435034714274816
0.010406652933546959
0.0023498893720912484
-0.0030212863355458916
-0.005706874189364461
-0.006378271152819104
-0.005706874189364461
-0.004028381780727854
-0.0016784924086366065
-0.0003356984817273213
0.003692683299000534
0.007049668116273747
0.009063859006637675
0.010406652933546959
0.011749446860456245
0.012420843823910887
0.013092240787365528
0.012756542305638208
0.012420843823910887
0.013092240787365528
0.014435034714274816
0.015106431677729458
0.011078049897001601
0.003356984817273213
-0.0030212863355458916
-0.006042572671091783
-0.006042572671091783
-0.005706874189364461
-0.004364080262455177
-0.0030212863355458916
-0.0006713969634546426
0.003692683299000534
0.007721065079728388
0.009735255970092317
0.010406652933546959
0.013092240787365528
0.014099336232547494
0.01376363775082017
0.013092240787365528
0.012756542305638208
0.01376363775082017
0.0157778286411841
0.0157778286411841
0.012756542305638208
0.004028381780727854
-0.003692683299000534
-0.007049668116273747
-0.007049668116273747
-0.007049668116273747
-0.005706874189364461
-0.003692683299000534
-0.0016784924086366065
0.0023498893720912484
0.007721065079728388
0.008392462043183033
0.009063859006637675
0.012756542305638208
0.013092240787365528
0.013092240787365528
0.012420843823910887
0.012420843823910887
0.014435034714274816
0.0157778286411841
0.016784924086366067
0.013092240787365528
0.004364080262455177
-0.0030212863355458916
-0.007049668116273747
-0.007049668116273747
-0.007049668116273747
-0.005706874189364461
-0.004364080262455177
-0.0016784924086366065
0.0023498893720912484
0.007721065079728388
0.008728160524910353
0.008728160524910353
0.011749446860456245
0.013092240787365528
0.013092240787365528
0.013092240787365528
0.012420843823910887
0.014435034714274816
0.016449225604638743
0.017120622568093383
0.014435034714274816
0.004699778744182497
-0.003692683299000534
-0.007721065079728388
-0.008392462043183033
-0.008392462043183033
-0.006378271152819104
-0.005706874189364461
-0.0023498893720912484
0.0023498893720912484
0.007721065079728388
0.007721065079728388
0.007721065079728388
0.011749446860456245
0.013092240787365528
0.014435034714274816
0.014435034714274816
0.014435034714274816
0.0157778286411841
0.01846341649500267
0.01846341649500267
0.0157778286411841
0.007049668116273747
-0.0023498893720912484
-0.007049668116273747
-0.008728160524910353
-0.008392462043183033
-0.007049668116273747
-0.005706874189364461
-0.0030212863355458916
0.0023498893720912484
0.007721065079728388
0.006378271152819104
0.007049668116273747
0.011078049897001601
0.013092240787365528
0.013092240787365528
0.013092240787365528
0.012420843823910887
0.015106431677729458
0.017792019531548024
0.01913481345845731
0.017120622568093383
0.007721065079728388
-0.0030212863355458916
-0.008392462043183033
-0.009399557488364994
-0.008392462043183033
-0.006378271152819104
-0.005706874189364461
-0.0030212863355458916
0.0023498893720912484
0.007721065079728388
0.005706874189364461
0.007049668116273747
0.011749446860456245
0.014099336232547494
0.014435034714274816
0.014435034714274816
0.01376363775082017
0.0157778286411841
0.019806210421911954
0.020477607385366595
0.017792019531548024
0.009063859006637675
-0.0023498893720912484
-0.008392462043183033
-0.010406652933546959
-0.009735255970092317
-0.008392462043183033
-0.006378271152819104
-0.004364080262455177
0.0023498893720912484
0.007049668116273747
0.0050354772259098195
0.005706874189364461
0.011749446860456245
0.014435034714274816
0.015106431677729458
0.015106431677729458
0.014435034714274816
0.017792019531548024
0.022491798275730522
0.022491798275730522
0.019806210421911954
0.010406652933546959
-0.0030212863355458916
-0.009735255970092317
-0.011749446860456245
-0.011749446860456245
-0.009399557488364994
-0.007385366598001068
-0.004364080262455177
0.003356984817273213
0.0050354772259098195
0.0023498893720912484
0.0050354772259098195
0.010406652933546959
0.014099336232547494
0.0157778286411841
0.0157778286411841
0.0157778286411841
0.019806210421911954
0.024505989166094453
0.024505989166094453
0.021820401312275882
0.015106431677729458
0.0030212863355458916
-0.005706874189364461
-0.008392462043183033
-0.008392462043183033
-0.005706874189364461
-0.004028381780727854
-0.0016784924086366065
-0.0030212863355458916
-0.005706874189364461
-0.007049668116273747
-0.0030212863355458916
0.003692683299000534
0.009063859006637675
0.011413748378728923
0.011749446860456245
0.012420843823910887
0.0157778286411841
0.022491798275730522
0.024841687647821773
0.021820401312275882
0.0157778286411841
0.008392462043183033
0.003692683299000534
-0.0003356984817273213
-0.0016784924086366065
-0.0016784924086366065
-0.003692683299000534
-0.009063859006637675
-0.012420843823910887
-0.01376363775082017
-0.01376363775082017
-0.009063859006637675
0.0003356984817273213
0.005706874189364461
0.010070954451819639
0.011413748378728923
0.011749446860456245
0.017792019531548024
0.025177386129549097
0.02719157701991302
0.025177386129549097
0.01846341649500267
0.010406652933546959
0.004699778744182497
0.0016784924086366065
-0.0003356984817273213
-0.0010070954451819635
-0.0030212863355458916
-0.007049668116273747
-0.011078049897001601
-0.013092240787365528
-0.01376363775082017
-0.007049668116273747
0.0023498893720912484
0.007721065079728388
0.011749446860456245
0.01376363775082017
0.014435034714274816
0.020141908903639278
0.027862973983367664
0.03054856183718624
0.02719157701991302
0.019806210421911954
0.011749446860456245
0.004364080262455177
0.0010070954451819635
-0.0003356984817273213
-0.0016784924086366065
-0.0030212863355458916
-0.008392462043183033
-0.012420843823910887
-0.014435034714274816
-0.014435034714274816
-0.009063859006637675
0.0010070954451819635
0.007721065079728388
0.011078049897001601
0.013092240787365528
0.01376363775082017
0.020477607385366595
0.027862973983367664
0.029877164873731592
0.02652018005645838
0.020477607385366595
0.011749446860456245
0.004364080262455177
0.0006713969634546426
-0.0006713969634546426
-0.0013427939269092851
-0.0030212863355458916
-0.008392462043183033
-0.01376363775082017
-0.015442130159456776
-0.015106431677729458
-0.008392462043183033
0.0016784924086366065
0.007721065079728388
0.012420843823910887
0.01376363775082017
0.014435034714274816
0.021149004348821242
0.02853437094682231
0.03121995880064088
0.027862973983367664
0.021149004348821242
0.011749446860456245
0.0050354772259098195
0.0010070954451819635
-0.0016784924086366065
-0.0016784924086366065
-0.004364080262455177
-0.009735255970092317
-0.014099336232547494
-0.016449225604638743
-0.016449225604638743
-0.009063859006637675
0.0010070954451819635
0.007721065079728388
0.011749446860456245
0.013092240787365528
0.015106431677729458
0.021820401312275882
0.029877164873731592
0.03189135576409552
0.029205767910276948
0.021820401312275882
0.011078049897001601
0.004699778744182497
0.0010070954451819635
-0.0016784924086366065
-0.002014190890363927
-0.004364080262455177
-0.010406652933546959
-0.015106431677729458
-0.016449225604638743
-0.017120622568093383
-0.010070954451819639
0.0010070954451819635
0.007721065079728388
0.011749446860456245
0.013092240787365528
0.015106431677729458
0.021149004348821242
0.03054856183718624
0.033234149691004806
0.029877164873731592
0.021149004348821242
0.010406652933546959
0.004364080262455177
0.0003356984817273213
-0.0016784924086366065
-0.0023498893720912484
-0.0050354772259098195
-0.010406652933546959
-0.015106431677729458
-0.017120622568093383
-0.017120622568093383
-0.009735255970092317
0.0003356984817273213
0.007721065079728388
0.011749446860456245
0.013092240787365528
0.015106431677729458
0.022491798275730522
0.03054856183718624
0.03390554665445944
0.029205767910276948
0.022156099794003202
0.011749446860456245
0.003692683299000534
-0.003692683299000534
-0.009063859006637675
-0.011078049897001601
-0.014435034714274816
-0.014435034714274816
-0.009063859006637675
-0.008392462043183033
-0.010406652933546959
-0.003356984817273213
0.007721065079728388
0.013092240787365528
0.016784924086366067
0.017792019531548024
0.01846341649500267
0.023834592202639806
0.03121995880064088
0.03189135576409552
0.027862973983367664
0.0157778286411841
-0.003692683299000534
-0.014435034714274816
-0.017120622568093383
-0.016449225604638743
-0.01376363775082017
-0.009735255970092317
-0.0016784924086366065
0.004028381780727854
0.002014190890363927
0.0006713969634546426
0.0050354772259098195
0.011749446860456245
0.014435034714274816
0.0157778286411841
0.0157778286411841
0.0157778286411841
0.019806210421911954
0.023163195239185166
0.022491798275730522
0.01913481345845731
0.014435034714274816
0.007721065079728388
0.003692683299000534
0.002014190890363927
0.0010070954451819635
-0.0003356984817273213
-0.0010070954451819635
-0.0030212863355458916
-0.004364080262455177
-0.004699778744182497
-0.004364080262455177
-0.0016784924086366065
0.0023498893720912484
0.006042572671091783
0.007049668116273747
0.007721065079728388
0.009063859006637675
0.011413748378728923
0.013092240787365528
0.01376363775082017
0.012420843823910887
0.009735255970092317
0.006378271152819104
0.003692683299000534
-0.0003356984817273213
-0.0016784924086366065
-0.002014190890363927
-0.0016784924086366065
0.0010070954451819635
0.003692683299000534
0.003356984817273213
0.0030212863355458916
0.0050354772259098195
0.008392462043183033
0.009735255970092317
0.009735255970092317
0.009063859006637675
0.009063859006637675
0.010406652933546959
0.011413748378728923
0.007385366598001068
-0.003692683299000534
-0.010070954451819639
-0.013092240787365528
-0.01376363775082017
-0.011749446860456245
-0.009063859006637675
-0.006378271152819104
-0.003356984817273213
0.002014190890363927
0.009063859006637675
0.014770733196002136
0.021149004348821242
0.025177386129549097
0.025177386129549097
0.023834592202639806
0.021149004348821242
0.01812771801327535
0.0157778286411841
0.011413748378728923
0.0050354772259098195
-0.0016784924086366065
-0.007049668116273747
-0.009735255970092317
-0.009399557488364994
-0.007385366598001068
-0.005706874189364461
-0.0030212863355458916
-0.0006713969634546426
0.002014190890363927
0.006378271152819104
0.012756542305638208
0.017792019531548024
0.022491798275730522
0.024841687647821773
0.025177386129549097
0.023163195239185166
0.021149004348821242
0.01846341649500267
0.016784924086366067
0.013092240787365528
0.007385366598001068
0.0013427939269092851
-0.0030212863355458916
-0.004364080262455177
-0.004364080262455177
-0.004364080262455177
-0.0016784924086366065
-0.0003356984817273213
0.0016784924086366065
0.003692683299000534
0.006378271152819104
0.010406652933546959
0.01376363775082017
0.017792019531548024
0.019806210421911954
0.019806210421911954
0.017792019531548024
0.0157778286411841
0.014435034714274816
0.012420843823910887
0.009063859006637675
0.004364080262455177
-0.0010070954451819635
-0.003692683299000534
-0.0050354772259098195
-0.005706874189364461
-0.004364080262455177
-0.0030212863355458916
-0.0013427939269092851
0.0010070954451819635
0.0016784924086366065
0.004699778744182497
0.007721065079728388
0.011749446860456245
0.014435034714274816
0.0157778286411841
0.0157778286411841
0.015106431677729458
0.013092240787365528
0.011078049897001601
0.009063859006637675
0.007049668116273747
0.003356984817273213
-0.0003356984817273213
-0.0030212863355458916
-0.0030212863355458916
-0.003356984817273213
-0.0030212863355458916
-0.0023498893720912484
-0.0010070954451819635
-0.0003356984817273213
0.0023498893720912484
0.004699778744182497
0.007385366598001068
0.010406652933546959
0.012420843823910887
0.014435034714274816
0.01376363775082017
0.013092240787365528
0.011078049897001601
0.009735255970092317
0.007721065079728388
0.006378271152819104
0.0030212863355458916
-0.0003356984817273213
-0.0016784924086366065
-0.0030212863355458916
-0.0030212863355458916
-0.0016784924086366065
-0.0016784924086366065
0.0003356984817273213
0.0016784924086366065
0.0030212863355458916
0.0050354772259098195
0.007721065079728388
0.010406652933546959
0.013092240787365528
0.01376363775082017
0.013092240787365528
0.012420843823910887
0.010406652933546959
0.009735255970092317
0.008392462043183033
0.006042572671091783
0.003692683299000534
0.0010070954451819635
-0.0016784924086366065
-0.0023498893720912484
-0.0016784924086366065
-0.0003356984817273213
-0.0003356984817273213
0.0016784924086366065
0.0023498893720912484
0.004364080262455177
0.006378271152819104
0.009063859006637675
0.011413748378728923
0.013092240787365528
0.013092240787365528
0.012420843823910887
0.011749446860456245
0.010406652933546959
0.009735255970092317
0.007721065079728388
0.006378271152819104
0.003692683299000534
0.0016784924086366065
-0.0006713969634546426
-0.0010070954451819635
-0.0003356984817273213
-0.0003356984817273213
0.0016784924086366065
0.0016784924086366065
0.002014190890363927
0.003692683299000534
0.005706874189364461
0.007721065079728388
0.010406652933546959
0.013092240787365528
0.012756542305638208
0.011749446860456245
0.010406652933546959
0.010406652933546959
0.009735255970092317
0.007721065079728388
0.006042572671091783
0.003692683299000534
0.0003356984817273213
-0.0010070954451819635
-0.0010070954451819635
0.0003356984817273213
0.0010070954451819635
0.0016784924086366065
0.0023498893720912484
0.003692683299000534
0.0050354772259098195
0.007049668116273747
0.009063859006637675
0.010406652933546959
0.01376363775082017
0.013092240787365528
0.011749446860456245
0.011413748378728923
0.009735255970092317
0.009735255970092317
0.007721065079728388
0.006378271152819104
0.003692683299000534
0.0016784924086366065
-0.0003356984817273213
-0.0003356984817273213
-0.0003356984817273213
0.0010070954451819635
0.0023498893720912484
0.0030212863355458916
0.003692683299000534
0.0050354772259098195
0.007049668116273747
0.008392462043183033
0.010406652933546959
0.013092240787365528
0.013092240787365528
0.012085145342183566
0.011078049897001601
0.010406652933546959
0.009063859006637675
0.007721065079728388
0.005706874189364461
0.0023498893720912484
0.0010070954451819635
-0.0003356984817273213
-0.0016784924086366065
0.0003356984817273213
0.0010070954451819635
0.0016784924086366065
0.0023498893720912484
0.004364080262455177
0.0050354772259098195
0.007049668116273747
0.009063859006637675
0.011078049897001601
0.013092240787365528
0.013092240787365528
0.012420843823910887
0.010406652933546959
0.009063859006637675
0.009063859006637675
0.008392462043183033
0.005706874189364461
0.0023498893720912484
0.0010070954451819635
-0.0003356984817273213
-0.0010070954451819635
0.0006713969634546426
0.0016784924086366065
0.003356984817273213
0.0030212863355458916
0.004364080262455177
0.004699778744182497
0.007721065079728388
0.009399557488364994
0.011413748378728923
0.012756542305638208
0.013092240787365528
0.011749446860456245
0.010406652933546959
0.009063859006637675
0.009063859006637675
0.007721065079728388
0.0050354772259098195
0.0023498893720912484
-0.0003356984817273213
-0.0016784924086366065
-0.0010070954451819635
0.0006713969634546426
0.0016784924086366065
0.0023498893720912484
0.003356984817273213
0.003692683299000534
0.004364080262455177
0.007049668116273747
0.009063859006637675
0.010406652933546959
0.013092240787365528
0.013092240787365528
0.011749446860456245
0.010406652933546959
0.009063859006637675
0.009735255970092317
0.007721065079728388
0.005706874189364461
0.0023498893720912484
0.0006713969634546426
-0.0003356984817273213
-0.0010070954451819635
-0.0003356984817273213
0.0010070954451819635
0.0016784924086366065
0.0023498893720912484
0.003692683299000534
0.006378271152819104
0.007721065079728388
0.010070954451819639
0.011749446860456245
0.013092240787365528
0.01376363775082017
0.013092240787365528
0.011749446860456245
0.010406652933546959
0.009735255970092317
0.009063859006637675
0.0050354772259098195
0.0023498893720912484
0.0003356984817273213
-0.0006713969634546426
-0.0010070954451819635
-0.0003356984817273213
0.0010070954451819635
0.0016784924086366065
0.0030212863355458916
0.003692683299000534
0.0050354772259098195
0.007721065079728388
0.010070954451819639
0.011749446860456245
0.013092240787365528
0.01376363775082017
0.013092240787365528
0.011749446860456245
0.010406652933546959
0.009735255970092317
0.009063859006637675
0.006378271152819104
0.003692683299000534
0.0010070954451819635
-0.0006713969634546426
-0.0010070954451819635
-0.0003356984817273213
0.0010070954451819635
0.0023498893720912484
0.0023498893720912484
0.003692683299000534
0.0050354772259098195
0.007049668116273747
0.009735255970092317
0.011749446860456245
0.01376363775082017
0.01376363775082017
0.013092240787365528
0.011749446860456245
0.010070954451819639
0.010406652933546959
0.009063859006637675
0.006378271152819104
0.003692683299000534
0.0010070954451819635
-0.0003356984817273213
-0.0016784924086366065
-0.0003356984817273213
-0.0003356984817273213
0.0016784924086366065
0.0030212863355458916
0.003692683299000534
0.0050354772259098195
0.007049668116273747
0.009063859006637675
0.011749446860456245
0.013092240787365528
0.01376363775082017
0.013092240787365528
0.012420843823910887
0.011078049897001601
0.010406652933546959
0.009063859006637675
0.006378271152819104
0.0030212863355458916
0.0003356984817273213
-0.0010070954451819635
-0.0010070954451819635
-0.0006713969634546426
-0.0003356984817273213
0.0016784924086366065
0.0023498893720912484
0.004364080262455177
0.0050354772259098195
0.007721065079728388
0.010070954451819639
0.011749446860456245
0.014435034714274816
0.014435034714274816
0.01376363775082017
0.012420843823910887
0.011078049897001601
0.010406652933546959
0.009399557488364994
0.006378271152819104
0.003692683299000534
0.0010070954451819635
-0.0003356984817273213
-0.0016784924086366065
-0.0003356984817273213
-0.0003356984817273213
0.0016784924086366065
0.0023498893720912484
0.003692683299000534
0.0050354772259098195
0.007049668116273747
0.009735255970092317
0.011749446860456245
0.013092240787365528
0.01376363775082017
0.014099336232547494
0.012420843823910887
0.011078049897001601
0.009063859006637675
0.009063859006637675
0.006378271152819104
0.003356984817273213
0.0003356984817273213
-0.0010070954451819635
-0.0010070954451819635
-0.0003356984817273213
0.0003356984817273213
0.0010070954451819635
0.0023498893720912484
0.004364080262455177
0.004699778744182497
0.006378271152819104
0.009063859006637675
0.011078049897001601
0.014099336232547494
0.014435034714274816
0.013092240787365528
0.011749446860456245
0.011749446860456245
0.010406652933546959
0.009063859006637675
0.007049668116273747
0.003356984817273213
0.0010070954451819635
-0.0003356984817273213
-0.0006713969634546426
-0.0003356984817273213
0.0006713969634546426
0.0013427939269092851
0.0023498893720912484
0.003692683299000534
0.0050354772259098195
0.007049668116273747
0.008728160524910353
0.011749446860456245
0.01376363775082017
0.013092240787365528
0.012756542305638208
0.012420843823910887
0.010406652933546959
0.009735255970092317
0.009063859006637675
0.006378271152819104
0.004364080262455177
0.0010070954451819635
-0.0010070954451819635
-0.0010070954451819635
0.0003356984817273213
0.0016784924086366065
0.0030212863355458916
0.003692683299000534
0.004364080262455177
0.0050354772259098195
0.007721065079728388
0.010406652933546959
0.011749446860456245
0.014435034714274816
0.01376363775082017
0.013092240787365528
0.012420843823910887
0.011749446860456245
0.010070954451819639
0.007721065079728388
0.006378271152819104
0.003692683299000534
0.0010070954451819635
0.0003356984817273213
-0.0003356984817273213
0.0003356984817273213
0.0016784924086366065
0.0016784924086366065
0.003356984817273213
0.0050354772259098195
0.006378271152819104
0.007721065079728388
0.009063859006637675
0.011749446860456245
0.013092240787365528
0.013092240787365528
0.013092240787365528
0.011413748378728923
0.010406652933546959
0.009735255970092317
0.007721065079728388
0.006378271152819104
0.003692683299000534
0.0016784924086366065
0.0003356984817273213
0.0010070954451819635
0.0006713969634546426
0.002014190890363927
0.0030212863355458916
0.003692683299000534
0.004364080262455177
0.006042572671091783
0.007721065079728388
0.009399557488364994
0.011749446860456245
0.013092240787365528
0.01376363775082017
0.012420843823910887
0.011749446860456245
0.010406652933546959
0.010406652933546959
0.009399557488364994
0.007385366598001068
0.004364080262455177
0.0016784924086366065
0.0010070954451819635
0.0003356984817273213
0.0010070954451819635
0.0010070954451819635
0.0023498893720912484
0.003692683299000534
0.003692683299000534
0.006378271152819104
0.007049668116273747
0.010070954451819639
0.010406652933546959
0.013092240787365528
0.012756542305638208
0.011749446860456245
0.011749446860456245
0.010406652933546959
0.009735255970092317
0.009063859006637675
0.006378271152819104
0.003692683299000534
0.0016784924086366065
0.0010070954451819635
-0.0003356984817273213
0.0010070954451819635
0.0023498893720912484
0.0023498893720912484
0.003356984817273213
0.004364080262455177
0.0050354772259098195
0.007049668116273747
0.009735255970092317
0.011749446860456245
0.013092240787365528
0.013092240787365528
0.011749446860456245
0.011078049897001601
0.010406652933546959
0.009735255970092317
0.007721065079728388
0.0050354772259098195
0.0030212863355458916
0.0016784924086366065
-0.0003356984817273213
-0.0003356984817273213
0.0010070954451819635
0.002014190890363927
0.0030212863355458916
0.003692683299000534
0.004364080262455177
0.0050354772259098195
0.007385366598001068
0.009063859006637675
0.010406652933546959
0.013092240787365528
0.013092240787365528
0.011749446860456245
0.011078049897001601
0.011078049897001601
0.009063859006637675
0.007721065079728388
0.006378271152819104
0.003356984817273213
0.0016784924086366065
0.0003356984817273213
-0.0003356984817273213
0.0006713969634546426
0.0023498893720912484
0.0030212863355458916
0.003692683299000534
0.004364080262455177
0.005706874189364461
0.007721065079728388
0.009735255970092317
0.011749446860456245
0.012756542305638208
0.013092240787365528
0.011749446860456245
0.011078049897001601
0.010406652933546959
0.009399557488364994
0.008392462043183033
0.005706874189364461
0.003692683299000534
0.0010070954451819635
-0.0003356984817273213
-0.0003356984817273213
0.0010070954451819635
0.0023498893720912484
0.0023498893720912484
0.003692683299000534
0.0030212863355458916
0.005706874189364461
0.007721065079728388
0.008728160524910353
0.010406652933546959
0.012420843823910887
0.012420843823910887
0.011078049897001601
0.010406652933546959
0.009063859006637675
0.008392462043183033
0.007049668116273747
0.004364080262455177
0.0016784924086366065
-0.0003356984817273213
-0.0006713969634546426
-0.0010070954451819635
-0.0003356984817273213
0.0010070954451819635
0.0016784924086366065
0.0023498893720912484
0.003356984817273213
0.004699778744182497
0.007049668116273747
0.009063859006637675
0.011078049897001601
0.013092240787365528
0.013092240787365528
0.011749446860456245
0.011078049897001601
0.009735255970092317
0.008728160524910353
0.007721065079728388
0.0050354772259098195
0.0016784924086366065
0.0003356984817273213
-0.0003356984817273213
-0.0010070954451819635
0.0003356984817273213
0.0016784924086366065
0.0023498893720912484
0.003692683299000534
0.004364080262455177
0.0050354772259098195
0.007721065079728388
0.010070954451819639
0.011749446860456245
0.012420843823910887
0.012756542305638208
0.011749446860456245
0.010406652933546959
0.009063859006637675
0.009735255970092317
0.007721065079728388
0.005706874189364461
0.0023498893720912484
0.0006713969634546426
-0.0003356984817273213
-0.0003356984817273213
0.0006713969634546426
0.002014190890363927
0.0030212863355458916
0.004364080262455177
0.004364080262455177
0.0050354772259098195
0.007721065079728388
0.009735255970092317
0.011749446860456245
0.013092240787365528
0.012420843823910887
0.011078049897001601
0.010406652933546959
0.009735255970092317
0.007721065079728388
0.007049668116273747
0.004699778744182497
0.002014190890363927
0.0003356984817273213
-0.0003356984817273213
-0.0003356984817273213
0.0003356984817273213
0.0016784924086366065
0.0023498893720912484
0.0030212863355458916
0.004028381780727854
0.005706874189364461
0.007721065079728388
0.009735255970092317
0.010406652933546959
0.012756542305638208
0.012420843823910887
0.011749446860456245
0.010406652933546959
0.009063859006637675
0.008728160524910353
0.007721065079728388
0.0050354772259098195
0.0023498893720912484
0.0010070954451819635
-0.0006713969634546426
-0.0010070954451819635
0.0003356984817273213
0.0003356984817273213
0.002014190890363927
0.0030212863355458916
0.003356984817273213
0.004364080262455177
0.007049668116273747
0.009399557488364994
0.011413748378728923
0.012420843823910887
0.011749446860456245
0.011078049897001601
0.010406652933546959
0.009735255970092317
0.007721065079728388
0.007385366598001068
0.0050354772259098195
0.0023498893720912484
0.0003356984817273213
-0.0003356984817273213
-0.0003356984817273213
0.0003356984817273213
0.0010070954451819635
0.0023498893720912484
0.0030212863355458916
0.004364080262455177
0.0050354772259098195
0.007049668116273747
0.009735255970092317
0.011749446860456245
0.012420843823910887
0.012756542305638208
0.013092240787365528
0.011749446860456245
0.010406652933546959
0.009735255970092317
0.007721065079728388
0.005706874189364461
0.003692683299000534
0.0010070954451819635
-0.0003356984817273213
0.0003356984817273213
0.0003356984817273213
0.0010070954451819635
0.0023498893720912484
0.0030212863355458916
0.004364080262455177
0.0050354772259098195
0.007721065079728388
0.009735255970092317
0.011749446860456245
0.013092240787365528
0.013092240787365528
0.012420843823910887
0.011749446860456245
0.009735255970092317
0.008392462043183033
0.007049668116273747
0.006378271152819104
0.0023498893720912484
-0.0003356984817273213
-0.0003356984817273213
-0.0016784924086366065
-0.0003356984817273213
0.0010070954451819635
0.0016784924086366065
0.0030212863355458916
0.003692683299000534
0.0050354772259098195
0.007049668116273747
0.009063859006637675
0.010406652933546959
0.011749446860456245
0.012756542305638208
0.012420843823910887
0.010406652933546959
0.010406652933546959
0.009063859006637675
0.007721065079728388
0.006378271152819104
0.003692683299000534
0.0016784924086366065
0.0003356984817273213
0.0003356984817273213
0.0016784924086366065
0.0023498893720912484
0.0023498893720912484
0.003692683299000534
0.0050354772259098195
0.0050354772259098195
0.007721065079728388
0.010406652933546959
0.012756542305638208
0.013092240787365528
0.014435034714274816
0.012420843823910887
0.011749446860456245
0.010406652933546959
0.009063859006637675
0.008392462043183033
0.006378271152819104
0.003356984817273213
0.0003356984817273213
-0.0003356984817273213
-0.0003356984817273213
-0.0003356984817273213
-0.0003356984817273213
0.0010070954451819635
0.0023498893720912484
0.003692683299000534
0.0050354772259098195
0.007049668116273747
0.009063859006637675
0.011078049897001601
0.012420843823910887
0.011749446860456245
0.010406652933546959
0.011078049897001601
0.009735255970092317
0.009063859006637675
0.008392462043183033
0.006378271152819104
0.003692683299000534
0.0003356984817273213
-0.0010070954451819635
-0.0010070954451819635
-0.0003356984817273213
0.0010070954451819635
0.0016784924086366065
0.0023498893720912484
0.004364080262455177
0.004364080262455177
0.006378271152819104
0.008728160524910353
0.010406652933546959
0.011749446860456245
0.012420843823910887
0.011749446860456245
0.011078049897001601
0.010406652933546959
0.008728160524910353
0.007385366598001068
0.004699778744182497
0.0023498893720912484
0.0006713969634546426
-0.0010070954451819635
-0.0016784924086366065
-0.0003356984817273213
0.0010070954451819635
0.002014190890363927
0.0023498893720912484
0.0030212863355458916
0.0050354772259098195
0.007049668116273747
0.009735255970092317
0.010406652933546959
0.013092240787365528
0.013092240787365528
0.011749446860456245
0.011749446860456245
0.010406652933546959
0.009063859006637675
0.007721065079728388
0.005706874189364461
0.0023498893720912484
-0.0003356984817273213
-0.0010070954451819635
-0.0006713969634546426
0.0003356984817273213
0.0010070954451819635
0.0023498893720912484
0.003692683299000534
0.004364080262455177
0.0050354772259098195
0.007721065079728388
0.010406652933546959
0.011413748378728923
0.013092240787365528
0.013092240787365528
0.012420843823910887
0.011413748378728923
0.010406652933546959
0.009735255970092317
0.007721065079728388
0.006042572671091783
0.0023498893720912484
-0.0003356984817273213
-0.0003356984817273213
-0.0010070954451819635
0.0003356984817273213
0.0010070954451819635
0.0016784924086366065
0.0023498893720912484
0.003692683299000534
0.0050354772259098195
0.007721065079728388
0.010406652933546959
0.012420843823910887
0.01376363775082017
0.013092240787365528
0.011749446860456245
0.011413748378728923
0.010406652933546959
0.010406652933546959
0.007721065079728388
0.0050354772259098195
0.0023498893720912484
0.0010070954451819635
-0.0016784924086366065
-0.0010070954451819635
-0.0003356984817273213
0.0010070954451819635
0.0010070954451819635
0.0023498893720912484
0.003692683299000534
0.005706874189364461
0.008392462043183033
0.010406652933546959
0.012756542305638208
0.014435034714274816
0.014435034714274816
0.012420843823910887
0.011413748378728923
0.009735255970092317
0.009735255970092317
0.007721065079728388
0.0050354772259098195
0.0016784924086366065
-0.0003356984817273213
-0.0016784924086366065
-0.0016784924086366065
-0.0003356984817273213
0.0006713969634546426
0.002014190890363927
0.0023498893720912484
0.003692683299000534
0.005706874189364461
0.007721065079728388
0.010406652933546959
0.012756542305638208
0.014435034714274816
0.014435034714274816
0.012420843823910887
0.011078049897001601
0.010406652933546959
0.008728160524910353
0.007721065079728388
0.004364080262455177
0.0013427939269092851
-0.0006713969634546426
-0.0016784924086366065
-0.0023498893720912484
-0.0016784924086366065
0.0010070954451819635
0.0010070954451819635
0.0023498893720912484
0.0023498893720912484
0.0050354772259098195
0.007721065079728388
0.010406652933546959
0.012420843823910887
0.014435034714274816
0.014435034714274816
0.012756542305638208
0.011749446860456245
0.010406652933546959
0.009735255970092317
0.007721065079728388
0.0050354772259098195
0.0010070954451819635
-0.0010070954451819635
-0.0016784924086366065
-0.0030212863355458916
-0.0016784924086366065
0.0006713969634546426
0.0016784924086366065
0.0023498893720912484
0.003692683299000534
0.0050354772259098195
0.008392462043183033
0.011749446860456245
0.01376363775082017
0.015442130159456776
0.014435034714274816
0.012420843823910887
0.011749446860456245
0.010406652933546959
0.009063859006637675
0.007721065079728388
0.004699778744182497
0.0003356984817273213
-0.0016784924086366065
-0.0030212863355458916
-0.0030212863355458916
-0.0016784924086366065
-0.0010070954451819635
0.0016784924086366065
0.0023498893720912484
0.003692683299000534
0.006378271152819104
0.008728160524910353
0.011749446860456245
0.013092240787365528
0.015106431677729458
0.0157778286411841
0.013092240787365528
0.011749446860456245
0.010406652933546959
0.009063859006637675
0.007721065079728388
0.003692683299000534
0.0006713969634546426
-0.0023498893720912484
-0.0030212863355458916
-0.0016784924086366065
-0.0010070954451819635
0.0010070954451819635
0.0023498893720912484
0.0023498893720912484
0.003692683299000534
0.006378271152819104
0.009063859006637675
0.012420843823910887
0.014435034714274816
0.0157778286411841
0.0157778286411841
0.014435034714274816
0.012420843823910887
0.010406652933546959
0.010070954451819639
0.007721065079728388
0.004364080262455177
-0.0003356984817273213
-0.0030212863355458916
-0.004364080262455177
-0.0030212863355458916
-0.0016784924086366065
-0.0003356984817273213
0.0016784924086366065
0.0016784924086366065
0.0030212863355458916
0.005706874189364461
0.009063859006637675
0.011749446860456245
0.013092240787365528
0.0157778286411841
0.0157778286411841
0.014435034714274816
0.012756542305638208
0.010406652933546959
0.009735255970092317
0.007721065079728388
0.004364080262455177
-0.0003356984817273213
-0.0030212863355458916
-0.003356984817273213
-0.0030212863355458916
-0.0016784924086366065
-0.0003356984817273213
0.0010070954451819635
0.0023498893720912484
0.003356984817273213
0.0050354772259098195
0.008392462043183033
0.011078049897001601
0.014435034714274816
0.016449225604638743
0.0157778286411841
0.013092240787365528
0.012420843823910887
0.010406652933546959
0.009063859006637675
0.007049668116273747
0.003692683299000534
-0.0003356984817273213
-0.0030212863355458916
-0.004364080262455177
-0.003356984817273213
-0.0030212863355458916
-0.0016784924086366065
0.0010070954451819635
0.002014190890363927
0.003692683299000534
0.0050354772259098195
0.009063859006637675
0.011749446860456245
0.015106431677729458
0.017120622568093383
0.0157778286411841
0.014435034714274816
0.013092240787365528
0.011413748378728923
0.010406652933546959
0.008728160524910353
0.0050354772259098195
-0.0003356984817273213
-0.0030212863355458916
-0.003692683299000534
-0.003692683299000534
-0.0016784924086366065
-0.0006713969634546426
0.0006713969634546426
0.0030212863355458916
0.003692683299000534
0.006042572671091783
0.009399557488364994
0.012420843823910887
0.015106431677729458
0.017792019531548024
0.016113527122911416
0.015106431677729458
0.013092240787365528
0.011749446860456245
0.010406652933546959
0.008392462043183033
0.0050354772259098195
0.0003356984817273213
-0.0030212863355458916
-0.0050354772259098195
-0.003692683299000534
-0.0016784924086366065
-0.0010070954451819635
0.0010070954451819635
0.002014190890363927
0.0030212863355458916
0.005706874189364461
0.009063859006637675
0.012420843823910887
0.0157778286411841
0.017792019531548024
0.016449225604638743
0.014435034714274816
0.013092240787365528
0.011749446860456245
0.010406652933546959
0.007721065079728388
0.004699778744182497
-0.0003356984817273213
-0.0030212863355458916
-0.004364080262455177
-0.004364080262455177
-0.0023498893720912484
-0.0010070954451819635
0.0003356984817273213
0.002014190890363927
0.003692683299000534
0.005706874189364461
0.008728160524910353
0.012420843823910887
0.015106431677729458
0.017792019531548024
0.016784924086366067
0.015442130159456776
0.01376363775082017
0.011749446860456245
0.010406652933546959
0.007721065079728388
0.003692683299000534
-0.0003356984817273213
-0.003692683299000534
-0.005706874189364461
-0.004364080262455177
-0.0030212863355458916
-0.0016784924086366065
-0.0003356984817273213
0.0010070954451819635
0.0023498893720912484
0.006042572671091783
0.008392462043183033
0.012420843823910887
0.0157778286411841
0.017792019531548024
0.016449225604638743
0.014435034714274816
0.013092240787365528
0.011749446860456245
0.009735255970092317
0.007049668116273747
0.003692683299000534
-0.0016784924086366065
-0.004699778744182497
-0.005706874189364461
-0.005706874189364461
-0.0030212863355458916
-0.0016784924086366065
-0.0003356984817273213
0.0016784924086366065
0.003692683299000534
0.006042572671091783
0.009063859006637675
0.013092240787365528
0.016784924086366067
0.01846341649500267
0.017120622568093383
0.015106431677729458
0.014099336232547494
0.011749446860456245
0.010406652933546959
0.007721065079728388
0.003692683299000534
-0.0003356984817273213
-0.003692683299000534
-0.006378271152819104
-0.005706874189364461
-0.0030212863355458916
-0.0016784924086366065
-0.0003356984817273213
0.0010070954451819635
0.0030212863355458916
0.005706874189364461
0.009063859006637675
0.013092240787365528
0.016449225604638743
0.01913481345845731
0.017120622568093383
0.0157778286411841
0.013092240787365528
0.012420843823910887
0.010406652933546959
0.007721065079728388
0.003692683299000534
-0.0003356984817273213
-0.004364080262455177
-0.005706874189364461
-0.005706874189364461
-0.003692683299000534
-0.0016784924086366065
-0.0003356984817273213
0.0016784924086366065
0.0023498893720912484
0.005706874189364461
0.009735255970092317
0.012420843823910887
0.0157778286411841
0.01846341649500267
0.017792019531548024
0.0157778286411841
0.014435034714274816
0.012420843823910887
0.010406652933546959
0.007721065079728388
0.004364080262455177
-0.0010070954451819635
-0.004364080262455177
-0.006378271152819104
-0.005706874189364461
-0.003356984817273213
-0.0016784924086366065
-0.0006713969634546426
0.0010070954451819635
0.0023498893720912484
0.0050354772259098195
0.009063859006637675
0.012420843823910887
0.0157778286411841
0.01846341649500267
0.017792019531548024
0.0157778286411841
0.014099336232547494
0.012420843823910887
0.010406652933546959
0.007721065079728388
0.0023498893720912484
-0.0006713969634546426
-0.004364080262455177
-0.006378271152819104
-0.007049668116273747
-0.004699778744182497
-0.0023498893720912484
-0.0003356984817273213
0.0010070954451819635
0.002014190890363927
0.0050354772259098195
0.009735255970092317
0.013092240787365528
0.016784924086366067
0.01913481345845731
0.01846341649500267
0.0157778286411841
0.01376363775082017
0.012420843823910887
0.010406652933546959
0.008392462043183033
0.003692683299000534
-0.0016784924086366065
-0.004364080262455177
-0.005706874189364461
-0.005706874189364461
-0.004364080262455177
-0.002014190890363927
-0.0003356984817273213
0.0010070954451819635
0.0023498893720912484
0.006378271152819104
0.010070954451819639
0.01376363775082017
0.017792019531548024
0.019470511940184634
0.017792019531548024
0.016784924086366067
0.01376363775082017
0.011749446860456245
0.010406652933546959
0.007721065079728388
0.0023498893720912484
-0.0016784924086366065
-0.0050354772259098195
-0.006378271152819104
-0.006378271152819104
-0.004364080262455177
-0.0030212863355458916
-0.0003356984817273213
0.0010070954451819635
0.0023498893720912484
0.0050354772259098195
0.009735255970092317
0.013092240787365528
0.017120622568093383
0.01913481345845731
0.01846341649500267
0.0157778286411841
0.01376363775082017
0.012756542305638208
0.011078049897001601
0.009063859006637675
0.003356984817273213
-0.0016784924086366065
-0.004364080262455177
-0.006378271152819104
-0.005706874189364461
-0.004364080262455177
-0.0030212863355458916
-0.0006713969634546426
0.0010070954451819635
0.0023498893720912484
0.005706874189364461
0.010406652933546959
0.014435034714274816
0.017792019531548024
0.019806210421911954
0.019806210421911954
0.017792019531548024
0.015106431677729458
0.013092240787365528
0.011413748378728923
0.009063859006637675
0.0030212863355458916
-0.0023498893720912484
-0.005706874189364461
-0.007385366598001068
-0.006713969634546426
-0.005706874189364461
-0.003692683299000534
-0.0016784924086366065
-0.0003356984817273213
0.0013427939269092851
0.004699778744182497
0.009063859006637675
0.013092240787365528
0.016784924086366067
0.019806210421911954
0.01846341649500267
0.016449225604638743
0.014770733196002136
0.013092240787365528
0.011749446860456245
0.009063859006637675
0.003692683299000534
-0.0016784924086366065
-0.005706874189364461
-0.007049668116273747
-0.007049668116273747
-0.0050354772259098195
-0.0030212863355458916
-0.0003356984817273213
-0.0003356984817273213
0.0016784924086366065
0.005706874189364461
0.010406652933546959
0.013092240787365528
0.017792019531548024
0.020813305867093918
0.019806210421911954
0.017120622568093383
0.0157778286411841
0.013092240787365528
0.011749446860456245
0.009735255970092317
0.003692683299000534
-0.0016784924086366065
-0.005706874189364461
-0.007385366598001068
-0.006378271152819104
-0.005706874189364461
-0.0030212863355458916
-0.0016784924086366065
-0.0003356984817273213
0.002014190890363927
0.0050354772259098195
0.010070954451819639
0.014435034714274816
0.017792019531548024
0.021149004348821242
0.019470511940184634
0.017120622568093383
0.015106431677729458
0.012756542305638208
0.012420843823910887
0.007721065079728388
0.0023498893720912484
-0.0023498893720912484
-0.006378271152819104
-0.008392462043183033
-0.007721065079728388
-0.005706874189364461
-0.003692683299000534
-0.0016784924086366065
-0.0003356984817273213
0.0016784924086366065
0.0050354772259098195
0.009735255970092317
0.014435034714274816
0.01846341649500267
0.021149004348821242
0.020477607385366595
0.01846341649500267
0.016449225604638743
0.014099336232547494
0.011749446860456245
0.009735255970092317
0.003356984817273213
-0.0030212863355458916
-0.006378271152819104
-0.008392462043183033
-0.008392462043183033
-0.005706874189364461
-0.004364080262455177
-0.002014190890363927
-0.0003356984817273213
0.0010070954451819635
0.0050354772259098195
0.010070954451819639
0.015442130159456776
0.019806210421911954
0.021149004348821242
0.021149004348821242
0.01846341649500267
0.017120622568093383
0.014435034714274816
0.012756542305638208
0.010070954451819639
0.003692683299000534
-0.0030212863355458916
-0.007721065079728388
-0.009063859006637675
-0.008728160524910353
-0.007049668116273747
-0.0050354772259098195
-0.0030212863355458916
-0.0003356984817273213
0.0016784924086366065
0.0050354772259098195
0.010070954451819639
0.0157778286411841
0.019806210421911954
0.021820401312275882
0.021149004348821242
0.019806210421911954
0.017120622568093383
0.015442130159456776
0.013092240787365528
0.009735255970092317
0.003692683299000534
-0.0030212863355458916
-0.007049668116273747
-0.009735255970092317
-0.009735255970092317
-0.007385366598001068
-0.005706874189364461
-0.003692683299000534
-0.0010070954451819635
0.0010070954451819635
0.0050354772259098195
0.010406652933546959
0.015442130159456776
0.019806210421911954
0.023163195239185166
0.021820401312275882
0.01846341649500267
0.016449225604638743
0.014435034714274816
0.012420843823910887
0.009063859006637675
0.004364080262455177
-0.0023498893720912484
-0.008392462043183033
-0.010742351415274281
-0.009735255970092317
-0.007385366598001068
-0.005706874189364461
-0.003692683299000534
-0.0010070954451819635
0.0010070954451819635
0.004364080262455177
0.009735255970092317
0.015106431677729458
0.021149004348821242
0.023834592202639806
0.020477607385366595
0.017792019531548024
0.0157778286411841
0.014435034714274816
0.011749446860456245
0.010406652933546959
0.007049668116273747
-0.0003356984817273213
-0.005706874189364461
-0.009063859006637675
-0.009063859006637675
-0.007721065079728388
-0.005706874189364461
-0.003692683299000534
-0.0016784924086366065
0.0010070954451819635
0.0050354772259098195
0.010406652933546959
0.0157778286411841
0.021149004348821242
0.021149004348821242
0.01846341649500267
0.016449225604638743
0.014435034714274816
0.013092240787365528
0.011749446860456245
0.010406652933546959
0.009063859006637675
0.0010070954451819635
-0.005706874189364461
-0.009735255970092317
-0.009063859006637675
-0.007721065079728388
-0.005706874189364461
-0.003692683299000534
-0.0016784924086366065
0.0010070954451819635
0.0050354772259098195
0.010406652933546959
0.0157778286411841
0.021820401312275882
0.019806210421911954
0.016784924086366067
0.0157778286411841
0.014099336232547494
0.013092240787365528
0.010406652933546959
0.009735255970092317
0.008728160524910353
0.004364080262455177
-0.0030212863355458916
-0.007049668116273747
-0.007385366598001068
-0.006378271152819104
-0.005706874189364461
-0.003692683299000534
-0.0016784924086366065
0.0010070954451819635
0.0050354772259098195
0.010406652933546959
0.017120622568093383
0.01846341649500267
0.0157778286411841
0.014435034714274816
0.013092240787365528
0.011413748378728923
0.010406652933546959
0.009735255970092317
0.009063859006637675
0.007721065079728388
0.007049668116273747
0.0023498893720912484
-0.004699778744182497
-0.006378271152819104
-0.0050354772259098195
-0.004364080262455177
-0.0030212863355458916
-0.0003356984817273213
0.0010070954451819635
0.006713969634546426
0.012420843823910887
0.015106431677729458
0.013092240787365528
0.012420843823910887
0.011749446860456245
0.010406652933546959
0.009735255970092317
0.009063859006637675
0.007721065079728388
0.007385366598001068
0.007385366598001068
0.006378271152819104
0.006378271152819104
0.0023498893720912484
-0.0003356984817273213
-0.0010070954451819635
-0.0003356984817273213
0.0010070954451819635
0.0023498893720912484
0.003692683299000534
0.007721065079728388
0.010406652933546959
0.008728160524910353
0.008728160524910353
0.007721065079728388
0.007721065079728388
0.007049668116273747
0.007049668116273747
0.007049668116273747
0.006378271152819104
0.005706874189364461
0.006378271152819104
0.006042572671091783
0.0050354772259098195
0.0050354772259098195
0.005706874189364461
0.006378271152819104
0.004364080262455177
0.003692683299000534
0.0023498893720912484
0.003692683299000534
0.0050354772259098195
0.0050354772259098195
0.004699778744182497
0.0050354772259098195
0.004364080262455177
0.004699778744182497
0.004699778744182497
0.0050354772259098195
0.0050354772259098195
0.0050354772259098195
0.005706874189364461
0.006378271152819104
0.006378271152819104
0.006378271152819104
0.006378271152819104
0.0050354772259098195
0.006042572671091783
0.0050354772259098195
0.0050354772259098195
0.0050354772259098195
0.006378271152819104
0.009063859006637675
0.008392462043183033
0.007385366598001068
0.007721065079728388
0.007049668116273747
0.007049668116273747
0.006378271152819104
0.006378271152819104
0.005706874189364461
0.006042572671091783
0.006042572671091783
0.005706874189364461
0.006378271152819104
0.006378271152819104
0.006378271152819104
0.0050354772259098195
0.003356984817273213
0.003692683299000534
0.003692683299000534
0.003692683299000534
0.004364080262455177
0.007721065079728388
0.007721065079728388
0.007721065079728388
0.007721065079728388
0.006378271152819104
0.006378271152819104
0.006378271152819104
0.006378271152819104
0.006378271152819104
0.006378271152819104
0.007049668116273747
0.006378271152819104
0.006042572671091783
0.006378271152819104
0.006378271152819104
0.0050354772259098195
0.0030212863355458916
0.0023498893720912484
0.004364080262455177
0.003692683299000534
0.0050354772259098195
0.008392462043183033
0.009063859006637675
0.008728160524910353
0.008392462043183033
0.007721065079728388
0.007721065079728388
0.006378271152819104
0.006713969634546426
0.006042572671091783
0.006713969634546426
0.006378271152819104
0.006378271152819104
0.005706874189364461
0.006378271152819104
0.006378271152819104
0.0050354772259098195
0.0023498893720912484
0.0023498893720912484
0.0023498893720912484
0.003356984817273213
0.004028381780727854
0.008392462043183033
0.008728160524910353
0.007721065079728388
0.007721065079728388
0.007385366598001068
0.007721065079728388
0.007385366598001068
0.006378271152819104
0.006378271152819104
0.006378271152819104
0.006378271152819104
0.006378271152819104
0.006378271152819104
0.006378271152819104
0.006378271152819104
0.004364080262455177
0.0023498893720912484
0.0023498893720912484
0.0023498893720912484
0.0023498893720912484
0.004364080262455177
0.007721065079728388
0.008392462043183033
0.008392462043183033
0.007721065079728388
0.007721065079728388
0.007721065079728388
0.007385366598001068
0.007721065079728388
0.007049668116273747
0.006378271152819104
0.007049668116273747
0.006378271152819104
0.006378271152819104
0.007049668116273747
0.007721065079728388
0.0050354772259098195
0.0023498893720912484
0.0023498893720912484
0.003356984817273213
0.003356984817273213
0.004364080262455177
0.008392462043183033
0.008392462043183033
0.007721065079728388
0.006713969634546426
0.007049668116273747
0.007049668116273747
0.006378271152819104
0.006378271152819104
0.006378271152819104
0.005706874189364461
0.006378271152819104
0.006378271152819104
0.006713969634546426
0.005706874189364461
0.006378271152819104
0.004364080262455177
0.0016784924086366065
0.0010070954451819635
0.0016784924086366065
0.0023498893720912484
0.003692683299000534
0.007049668116273747
