EMG Sensor 0
0.0
0.0
0.0
0.0
0.0
0.0
0.0
0.0
0.0
0.0
0.0
0.0
0.0
0.0
0.0
0.0
0.0
0.0
0.0
0.0
0.0
0.0
0.0
0.0
0.0
0.0
0.0
0.0
0.0
0.0
0.0
0.0
0.0
0.0
0.0
0.0
0.0
0.0
0.0
0.0
0.0
0.0
0.0
0.0
0.0
0.0
0.0
0.0
0.0
0.0
0.0
0.0
0.0
0.0
0.0
0.0
0.0
0.0
0.0
0.0
0.0
0.0
0.0
0.0
0.0
0.0
0.0
0.0
0.0
0.0
0.0
0.0
0.0
0.0
0.0
0.0
0.0
0.0
0.0
0.0
0.0
0.0
0.0
0.0
0.0
0.0
0.0
0.0
0.0
0.0
0.0
0.0
0.0
0.0
0.0
0.0
0.0
0.0
0.0
0.0
0.0
0.0
0.0
0.0
0.0
0.0
0.0
0.0
0.0
0.0
0.0
0.0
0.0
0.0
0.0
0.0
0.0
0.0
0.0
0.0
0.0
0.0
0.0
0.0
0.0
0.0
0.0
0.0
0.0
0.0
0.0
0.0
0.0
0.0
0.0
0.0
0.0
0.0
0.0
0.0
0.0
0.0
0.0
0.0
0.0
0.0
0.0
0.0
0.0
0.0
0.0
0.0
0.0
0.0
0.0
0.0
0.0
0.0
0.0
0.0
0.0
0.0
0.0
0.0
0.0
0.0
0.0
0.0
0.0
0.0
0.0
0.0
0.0
0.0
0.0
0.0
0.0
0.0
0.0
0.0
0.0
0.0
0.0
0.0
0.0
0.0
0.0
0.0
0.0
0.0
0.0
0.0
0.0
0.0
0.0
0.0
0.0
0.0
0.0
0.0
0.0
0.0
0.0
0.0
0.0
0.0
0.0
0.0
0.0
0.0
0.0
0.0
0.0
0.0
0.0
0.0
0.0
0.0
0.0
0.0
0.0
0.0
0.0
0.0
0.0
0.0
0.0
0.0
0.0
0.0
0.0
0.0
0.0
0.0
0.0
0.0
0.0
0.0
0.0
0.0
0.0
0.0
0.0
0.0
0.0
0.0
0.0
0.0
0.0
0.0
0.0
0.0
0.0
0.0
0.0
0.0
0.0
0.0
0.0
0.0
0.0
0.0
0.0
0.0
0.0
0.0
0.0
0.0
0.0
0.0
0.0
0.0
0.0
0.0
0.0
0.0
0.0
0.0
0.0
0.0
0.0
0.0
0.0
0.0
0.0
0.0
0.0
0.0
0.0
0.0
0.0
0.0
0.0
0.0
0.0
0.0
0.0
0.0
0.0
0.0
0.0
0.0
0.0
0.0
0.0
0.0
0.0
0.0
0.0
0.0
0.0
0.0
0.0
0.0
0.0
0.0
0.0
0.0
0.0
0.0
0.0
0.0
0.0
0.0
0.0
0.0
0.0
0.0
0.0
0.0
0.0
0.0
0.0
0.0
0.0
0.0
0.0
0.0
0.0
0.0
0.0
0.0
0.0
0.0
0.0
0.0
0.0
0.0
0.0
0.0
0.0
0.0
0.0
0.0
0.0
0.0
0.0
0.0
0.0
0.0
0.0
0.0
0.0
0.0
0.0
0.0
0.0
0.0
0.0
0.0
0.0
0.0
0.0
0.0
0.0
0.0
0.0
0.0
0.0
0.0
0.0
0.0
0.0
0.0
0.0
0.0
0.0
0.0
0.0
0.0
0.0
0.0
0.0
0.0
0.0
0.0
0.0
0.0
0.0
0.0
0.0
0.0
0.0
0.0
0.0
0.0
0.0
0.0
0.0010070954451819635
0.010406652933546959
0.010406652933546959
0.009063859006637675
0.008392462043183033
0.006378271152819104
0.0050354772259098195
0.0023498893720912484
0.0010070954451819635
0.0010070954451819635
0.0010070954451819635
0.0016784924086366065
0.0023498893720912484
0.0023498893720912484
0.003692683299000534
0.004364080262455177
0.006378271152819104
0.007721065079728388
0.009063859006637675
0.011078049897001601
0.011749446860456245
0.011749446860456245
0.010406652933546959
0.010406652933546959
0.009063859006637675
0.007721065079728388
0.006378271152819104
0.004364080262455177
0.0023498893720912484
0.0016784924086366065
0.0003356984817273213
0.0010070954451819635
0.0010070954451819635
0.002014190890363927
0.0030212863355458916
0.0030212863355458916
0.0050354772259098195
0.006378271152819104
0.007721065079728388
0.010070954451819639
0.011749446860456245
0.011749446860456245
0.011078049897001601
0.011749446860456245
0.010406652933546959
0.009063859006637675
0.008728160524910353
0.007049668116273747
0.004364080262455177
0.0023498893720912484
0.0010070954451819635
0.0003356984817273213
0.0010070954451819635
0.0010070954451819635
0.0023498893720912484
0.0023498893720912484
0.003692683299000534
0.0050354772259098195
0.007049668116273747
0.008392462043183033
0.010406652933546959
0.012420843823910887
0.013092240787365528
0.011749446860456245
0.011749446860456245
0.010406652933546959
0.009735255970092317
0.007721065079728388
0.006378271152819104
0.0050354772259098195
0.0023498893720912484
0.0010070954451819635
-0.0003356984817273213
0.0010070954451819635
0.002014190890363927
0.0016784924086366065
0.0023498893720912484
0.004364080262455177
0.005706874189364461
0.006378271152819104
0.009063859006637675
0.011078049897001601
0.012420843823910887
0.011749446860456245
0.011078049897001601
0.010406652933546959
0.009735255970092317
0.010406652933546959
0.009063859006637675
0.006713969634546426
0.004364080262455177
0.0023498893720912484
0.0003356984817273213
-0.0003356984817273213
-0.0003356984817273213
-0.0003356984817273213
0.0010070954451819635
0.0023498893720912484
0.003692683299000534
0.004364080262455177
0.005706874189364461
0.008392462043183033
0.010406652933546959
0.011749446860456245
0.011413748378728923
0.010406652933546959
0.010070954451819639
0.009399557488364994
0.009063859006637675
0.009063859006637675
0.007721065079728388
0.004364080262455177
0.0023498893720912484
0.0010070954451819635
0.0003356984817273213
0.0003356984817273213
0.0010070954451819635
0.0016784924086366065
0.0023498893720912484
0.003692683299000534
0.0050354772259098195
0.007385366598001068
0.009735255970092317
0.010406652933546959
0.010406652933546959
0.011749446860456245
0.010406652933546959
0.010406652933546959
0.010406652933546959
0.009735255970092317
0.010406652933546959
0.009063859006637675
0.006378271152819104
0.003356984817273213
0.0010070954451819635
-0.0003356984817273213
0.0003356984817273213
-0.0003356984817273213
0.0010070954451819635
0.0023498893720912484
0.0023498893720912484
0.0050354772259098195
0.007049668116273747
0.008728160524910353
0.009063859006637675
0.009735255970092317
0.009735255970092317
0.009735255970092317
0.009735255970092317
0.009735255970092317
0.009063859006637675
0.010406652933546959
0.010406652933546959
0.007721065079728388
0.004364080262455177
0.0010070954451819635
-0.0003356984817273213
-0.0003356984817273213
-0.0003356984817273213
0.0010070954451819635
0.0023498893720912484
0.0030212863355458916
0.0050354772259098195
0.007049668116273747
0.007721065079728388
0.007721065079728388
0.009063859006637675
0.009063859006637675
0.009063859006637675
0.009399557488364994
0.008392462043183033
0.009063859006637675
0.010406652933546959
0.010406652933546959
0.009735255970092317
0.006378271152819104
0.0023498893720912484
0.0010070954451819635
0.0010070954451819635
0.0016784924086366065
0.0016784924086366065
0.0023498893720912484
0.0026855878538185702
0.0050354772259098195
0.006378271152819104
0.0050354772259098195
0.007049668116273747
0.007721065079728388
0.009063859006637675
0.009063859006637675
0.009063859006637675
0.008392462043183033
0.009735255970092317
0.010406652933546959
0.011749446860456245
0.010406652933546959
0.009063859006637675
0.0050354772259098195
0.0023498893720912484
0.0010070954451819635
0.0016784924086366065
0.0023498893720912484
0.0023498893720912484
0.0023498893720912484
0.004699778744182497
0.0050354772259098195
0.004699778744182497
0.0050354772259098195
0.007049668116273747
0.007721065079728388
0.007721065079728388
0.007721065079728388
0.008392462043183033
0.009735255970092317
0.011078049897001601
0.011749446860456245
0.010406652933546959
0.009735255970092317
0.006378271152819104
0.0030212863355458916
0.0010070954451819635
0.0010070954451819635
0.0016784924086366065
0.0023498893720912484
0.0023498893720912484
0.003692683299000534
0.0023498893720912484
0.0023498893720912484
0.0030212863355458916
0.0050354772259098195
0.006378271152819104
0.007721065079728388
0.007721065079728388
0.007721065079728388
0.010406652933546959
0.012420843823910887
0.011749446860456245
0.010406652933546959
0.009063859006637675
0.007721065079728388
0.0050354772259098195
0.003692683299000534
0.0023498893720912484
0.0030212863355458916
0.0023498893720912484
0.0023498893720912484
0.0010070954451819635
0.0010070954451819635
0.0010070954451819635
0.0016784924086366065
0.0050354772259098195
0.007049668116273747
0.007721065079728388
0.007721065079728388
0.009063859006637675
0.009735255970092317
0.012756542305638208
0.013092240787365528
0.012420843823910887
0.009735255970092317
0.007721065079728388
0.005706874189364461
0.004364080262455177
0.003692683299000534
0.003356984817273213
0.0023498893720912484
0.0016784924086366065
0.0003356984817273213
0.0003356984817273213
0.0003356984817273213
0.0016784924086366065
0.0050354772259098195
0.007049668116273747
0.008392462043183033
0.008392462043183033
0.009063859006637675
0.010406652933546959
0.01376363775082017
0.015106431677729458
0.013092240787365528
0.010406652933546959
0.007721065079728388
0.006042572671091783
0.003692683299000534
0.003692683299000534
0.003692683299000534
0.0023498893720912484
0.0003356984817273213
-0.0003356984817273213
-0.0010070954451819635
-0.0016784924086366065
0.0006713969634546426
0.003692683299000534
0.006042572671091783
0.007721065079728388
0.008728160524910353
0.009063859006637675
0.010406652933546959
0.013092240787365528
0.015106431677729458
0.013092240787365528
0.011413748378728923
0.007721065079728388
0.0050354772259098195
0.003692683299000534
0.003692683299000534
0.003692683299000534
0.0023498893720912484
0.0003356984817273213
-0.0010070954451819635
-0.0016784924086366065
-0.0016784924086366065
0.0016784924086366065
0.005706874189364461
0.007049668116273747
0.008392462043183033
0.009063859006637675
0.009735255970092317
0.012420843823910887
0.0157778286411841
0.017120622568093383
0.0157778286411841
0.012420843823910887
0.007721065079728388
0.006042572671091783
0.0050354772259098195
0.004028381780727854
0.003692683299000534
0.0023498893720912484
-0.0003356984817273213
-0.0016784924086366065
-0.0016784924086366065
-0.0030212863355458916
0.0010070954451819635
0.004699778744182497
0.007385366598001068
0.009735255970092317
0.009735255970092317
0.009735255970092317
0.012756542305638208
0.0157778286411841
0.017120622568093383
0.0157778286411841
0.012420843823910887
0.007721065079728388
0.0050354772259098195
0.003692683299000534
0.0023498893720912484
0.0023498893720912484
0.0016784924086366065
-0.0016784924086366065
-0.003692683299000534
-0.004364080262455177
-0.004364080262455177
-0.0003356984817273213
0.003692683299000534
0.006378271152819104
0.009063859006637675
0.010070954451819639
0.010406652933546959
0.01376363775082017
0.017792019531548024
0.01846341649500267
0.017120622568093383
0.013092240787365528
0.007721065079728388
0.0050354772259098195
0.0023498893720912484
0.002014190890363927
0.0016784924086366065
0.0010070954451819635
-0.0023498893720912484
-0.005706874189364461
-0.005706874189364461
-0.006042572671091783
-0.0023498893720912484
0.003356984817273213
0.007049668116273747
0.009063859006637675
0.010406652933546959
0.011078049897001601
0.013092240787365528
0.019470511940184634
0.020477607385366595
0.01846341649500267
0.014435034714274816
0.008728160524910353
0.0050354772259098195
0.0023498893720912484
0.002014190890363927
0.0016784924086366065
-0.0003356984817273213
-0.0030212863355458916
-0.005706874189364461
-0.006378271152819104
-0.006378271152819104
-0.0023498893720912484
0.003692683299000534
0.007049668116273747
0.009063859006637675
0.010406652933546959
0.011749446860456245
0.016449225604638743
0.021149004348821242
0.022156099794003202
0.019806210421911954
0.014435034714274816
0.009063859006637675
0.003692683299000534
0.0016784924086366065
0.0016784924086366065
0.0010070954451819635
-0.0010070954451819635
-0.003692683299000534
-0.007049668116273747
-0.008392462043183033
-0.008728160524910353
-0.003692683299000534
0.003356984817273213
0.007721065079728388
0.010070954451819639
0.011078049897001601
0.012756542305638208
0.017120622568093383
0.022491798275730522
0.023834592202639806
0.021149004348821242
0.0157778286411841
0.009735255970092317
0.0050354772259098195
0.0030212863355458916
0.0010070954451819635
0.0010070954451819635
-0.0010070954451819635
-0.005706874189364461
-0.008728160524910353
-0.011078049897001601
-0.011078049897001601
-0.0050354772259098195
0.0023498893720912484
0.007721065079728388
0.010070954451819639
0.011749446860456245
0.013092240787365528
0.019806210421911954
0.02652018005645838
0.027862973983367664
0.023834592202639806
0.01812771801327535
0.009735255970092317
0.004699778744182497
0.0016784924086366065
0.0010070954451819635
-0.0003356984817273213
-0.0030212863355458916
-0.007721065079728388
-0.011749446860456245
-0.01376363775082017
-0.01376363775082017
-0.006378271152819104
0.004364080262455177
0.010406652933546959
0.013092240787365528
0.01376363775082017
0.0157778286411841
0.022491798275730522
0.027862973983367664
0.03054856183718624
0.02652018005645838
0.019470511940184634
0.010406652933546959
0.003692683299000534
0.0010070954451819635
-0.0006713969634546426
-0.0023498893720912484
-0.004699778744182497
-0.009735255970092317
-0.012420843823910887
-0.014435034714274816
-0.01376363775082017
-0.007049668116273747
0.0030212863355458916
0.009063859006637675
0.011749446860456245
0.012756542305638208
0.015106431677729458
0.022491798275730522
0.029205767910276948
0.029877164873731592
0.02652018005645838
0.01846341649500267
0.009063859006637675
0.003356984817273213
-0.0003356984817273213
-0.0016784924086366065
-0.0016784924086366065
-0.0050354772259098195
-0.009735255970092317
-0.01376363775082017
-0.01376363775082017
-0.014099336232547494
-0.007049668116273747
0.0023498893720912484
0.009399557488364994
0.013092240787365528
0.01376363775082017
0.0157778286411841
0.023163195239185166
0.029205767910276948
0.03054856183718624
0.02584878309300374
0.01846341649500267
0.009063859006637675
0.0023498893720912484
0.0003356984817273213
-0.0010070954451819635
-0.0016784924086366065
-0.004364080262455177
-0.011078049897001601
-0.014099336232547494
-0.015106431677729458
-0.015106431677729458
-0.007049668116273747
0.003692683299000534
0.009735255970092317
0.011749446860456245
0.01376363775082017
0.0157778286411841
0.022491798275730522
0.029877164873731592
0.03054856183718624
0.02652018005645838
0.01846341649500267
0.009063859006637675
0.003692683299000534
0.0010070954451819635
-0.0016784924086366065
-0.0016784924086366065
-0.005706874189364461
-0.011749446860456245
-0.015106431677729458
-0.015106431677729458
-0.016449225604638743
-0.007049668116273747
0.0030212863355458916
0.009735255970092317
0.01376363775082017
0.014435034714274816
0.017120622568093383
0.023834592202639806
0.03189135576409552
0.033234149691004806
0.027862973983367664
0.01913481345845731
0.010070954451819639
0.0030212863355458916
-0.0003356984817273213
-0.0016784924086366065
-0.0016784924086366065
-0.005706874189364461
-0.011078049897001601
-0.015106431677729458
-0.015106431677729458
-0.015106431677729458
-0.005706874189364461
0.004364080262455177
0.009735255970092317
0.012420843823910887
0.013092240787365528
0.015106431677729458
0.023163195239185166
0.029205767910276948
0.03054856183718624
0.02584878309300374
0.017792019531548024
0.009063859006637675
0.0023498893720912484
-0.0010070954451819635
-0.0016784924086366065
-0.0023498893720912484
-0.004364080262455177
-0.011078049897001601
-0.01376363775082017
-0.014099336232547494
-0.014435034714274816
-0.005706874189364461
0.004364080262455177
0.009063859006637675
0.011749446860456245
0.011749446860456245
0.014435034714274816
0.023163195239185166
0.03121995880064088
0.03189135576409552
0.02584878309300374
0.003356984817273213
-0.01913481345845731
-0.027862973983367664
-0.03054856183718624
-0.027862973983367664
-0.023163195239185166
-0.017792019531548024
-0.007049668116273747
0.011078049897001601
0.020477607385366595
0.0157778286411841
0.021149004348821242
0.029205767910276948
0.03189135576409552
0.0315556572823682
0.029877164873731592
0.029877164873731592
0.03457694361791409
0.03927672236209659
0.03256275272755016
0.004699778744182497
-0.021820401312275882
-0.035919737544823374
0.021820401312275882
3.0316929884794384
8.217563134203097
9.842343785763333
4.213351644159609
-4.433569848172732
-4.406042572671092
-3.4741435873960476
-3.3099870298313876
-2.897749294270237
-2.547615777828641
-2.2387731746395056
-1.9393301289387346
-1.6680857557030597
-1.4163118944075683
-1.181994354161898
-0.9825894560158692
-0.8140688181887541
-0.5562523842221714
6.815014877546349
10.968947890440223
10.97431906614786
10.97431906614786
10.97297627222095
10.97431906614786
10.974990463111313
3.0820477607385364
-10.970962081330585
-10.98673990997177
-10.98808270389868
-10.98908979934386
-10.98908979934386
-10.98908979934386
-10.98908979934386
-10.98908979934386
-10.98942549782559
-10.98942549782559
-9.655359731441214
-3.5929808499275198
10.658762493324177
10.971633478294041
10.97431906614786
10.974990463111313
10.97431906614786
10.97431906614786
10.97431906614786
10.974990463111313
6.086549172198062
-10.935713740749216
-10.986404211490042
-10.98808270389868
-10.988754100862135
-10.98942549782559
-10.98942549782559
-10.98942549782559
-10.989761196307317
-10.989761196307317
-10.98942549782559
1.6103456168459602
10.967605096513314
10.97297627222095
10.97431906614786
10.974990463111313
10.97566186007477
10.97431906614786
10.97431906614786
10.97431906614786
10.97566186007477
7.95034714274815
-10.617471580071717
-10.984725719081407
-10.987747005416953
-10.988754100862135
-10.988754100862135
-10.98942549782559
-10.98942549782559
-10.98942549782559
-10.98942549782559
-4.4073853665980005
10.902479591058212
10.97297627222095
10.97431906614786
10.974990463111313
10.97566186007477
10.97566186007477
10.97566186007477
10.974990463111313
10.97431906614786
10.97566186007477
5.2929579613946744
-10.610421911955443
-10.985061417563134
-10.98808270389868
-10.98908979934386
-10.988754100862135
-10.989761196307317
-10.989761196307317
-10.98942549782559
-10.98942549782559
-8.620065613794154
6.810315098802167
10.970290684367132
10.97297627222095
10.97297627222095
10.97431906614786
10.97431906614786
10.974990463111313
10.97431906614786
10.974990463111313
10.97297627222095
-0.07956054016937514
-10.600686655985351
-10.985397116044862
-10.987747005416953
-10.98908979934386
-10.98908979934386
-10.98942549782559
-10.98908979934386
-10.98942549782559
-10.98942549782559
-8.20111390859846
3.4775005722133203
10.963576714732586
10.971633478294041
10.97297627222095
10.97297627222095
10.97431906614786
10.974990463111313
10.97431906614786
10.97431906614786
6.9741359578851
-0.006378271152819104
-7.561608300907912
-10.981368734264134
-10.987411306935224
-10.98808270389868
-10.988754100862135
-10.98908979934386
-10.98908979934386
-10.98908979934386
-10.98942549782559
-4.251621271076524
5.021713588158999
10.964919508659495
10.97297627222095
10.97297627222095
10.973647669184405
10.97431906614786
10.97431906614786
10.97431906614786
10.97431906614786
8.716411078049896
3.080704966811627
-3.2532539864194705
-9.348195620660716
-10.983718623636225
-10.987747005416953
-10.988418402380407
-10.988754100862135
-10.98908979934386
-9.355580987258715
-6.162417029068437
-0.9255207141222248
6.565255207141222
10.966262302586404
10.97297627222095
10.97431906614786
10.97431906614786
10.97431906614786
10.974990463111313
10.975326161593042
10.97431906614786
8.79093614099336
4.050873579003586
-1.3753566796368353
-6.535713740749218
-10.923292896925307
-10.986068513008314
-10.98808270389868
-10.11090257114519
-7.260822461280232
-4.7652399481193255
-2.5576867322804606
0.148378728923476
5.703852903028916
10.94276340886549
10.97297627222095
10.97431906614786
10.97297627222095
10.97431906614786
10.97431906614786
10.97431906614786
10.03570611123827
7.223895628290227
3.110917830167086
-1.576775768673228
-4.8827344167238875
-4.261020828564888
-2.727550164034485
-1.6620431830319675
-0.6515907530327305
0.23968871595330735
0.9980315861753263
1.6499580376897842
2.1978179598687726
2.65302510109102
3.0236362249179827
4.044159609369039
6.093263141832608
6.788830395971617
6.471931029221027
5.740108339055466
4.83103685053788
3.7688868543526355
2.2323949034866866
1.6996414129854276
1.9440299076829175
2.0172121766994735
2.069581139848936
2.110536354619669
2.119935912108034
2.110536354619669
2.083680476081483
2.041382467383841
1.9856565194171054
1.9198596169985505
1.843320363164721
1.7610742351415272
1.6741283283741513
1.5828183413443198
1.4901655603875792
1.3944914930952925
1.2994888227664605
1.2061646448462653
1.11284046692607
1.0222018768596932
0.934248874647135
0.8483100633249409
0.7677424277103838
0.6898603799496451
0.6146639200427252
0.5448386358434424
0.47702754253452356
0.41324483100633247
0.35416189822232397
0.2997787441824979
0.2480811779964904
0.2004119935912108
0.15744258793011368
0.11783016708628975
0.08358892195010299
0.0520332646677348
0.024505989166094453
0.0010070954451819635
-0.020477607385366595
-0.03927672236209659
-0.055390249485008015
-0.06814679179064621
-0.0788891432059205
-0.08694590676737621
-0.09433127336537728
-0.09970244907301441
-0.10507362478065153
-0.10910200656137943
-0.11178759441519796
-0.11447318226901655
-0.11514457923247119
-0.11581597619592585
-0.11648737315938049
-0.11648737315938049
-0.11581597619592585
-0.11245899137865262
-0.10977340352483406
-0.10641641870756083
-0.10238803692683297
-0.09835965514610515
-0.09332417792019532
-0.08896009765774013
-0.08392462043183031
-0.07821774624246586
-0.07351796749828336
-0.06881818875410085
-0.064789806973373
-0.061432822156099784
-0.058075837338826576
-0.055390249485008015
-0.05270466163118945
-0.05035477225909819
-0.049347676813916226
-0.0473334859235523
-0.04666208896009766
-0.044983596551461044
-0.043305104142824444
-0.04129091325246051
-0.03927672236209659
-0.03659113450827802
-0.03390554665445944
-0.03189135576409552
-0.029877164873731592
-0.02719157701991302
-0.024505989166094453
-0.021820401312275882
-0.01913481345845731
-0.01846341649500267
-0.017120622568093383
-0.016784924086366067
-0.016784924086366067
-0.016449225604638743
-0.016784924086366067
-0.017792019531548024
-0.01913481345845731
-0.019470511940184634
-0.020477607385366595
-0.020477607385366595
-0.019806210421911954
-0.01913481345845731
-0.017792019531548024
-0.017120622568093383
-0.015442130159456776
-0.015106431677729458
-0.01376363775082017
-0.011749446860456245
-0.009735255970092317
-0.009063859006637675
-0.007721065079728388
-0.007721065079728388
-0.008392462043183033
-0.008392462043183033
-0.008728160524910353
-0.009063859006637675
-0.010406652933546959
-0.011749446860456245
-0.013092240787365528
-0.01376363775082017
-0.01376363775082017
-0.012420843823910887
-0.012420843823910887
-0.011413748378728923
-0.011078049897001601
-0.009735255970092317
-0.008392462043183033
-0.007721065079728388
-0.005706874189364461
-0.004364080262455177
-0.0030212863355458916
-0.0030212863355458916
-0.0030212863355458916
-0.0030212863355458916
-0.0030212863355458916
-0.003356984817273213
-0.003692683299000534
-0.005706874189364461
-0.007049668116273747
-0.008392462043183033
-0.008392462043183033
-0.008392462043183033
-0.008392462043183033
-0.007721065079728388
-0.007049668116273747
-0.006378271152819104
-0.005706874189364461
-0.004364080262455177
-0.0030212863355458916
-0.0006713969634546426
0.0010070954451819635
0.0023498893720912484
0.0023498893720912484
0.0023498893720912484
0.0016784924086366065
0.0010070954451819635
0.0003356984817273213
-0.0003356984817273213
-0.0016784924086366065
-0.0030212863355458916
-0.003692683299000534
-0.005706874189364461
-0.005706874189364461
-0.004364080262455177
-0.003692683299000534
-0.0030212863355458916
-0.0030212863355458916
-0.0016784924086366065
-0.0003356984817273213
-0.0003356984817273213
0.0016784924086366065
0.003356984817273213
0.0050354772259098195
0.005706874189364461
0.0050354772259098195
0.0050354772259098195
0.004364080262455177
0.004699778744182497
0.003356984817273213
0.0016784924086366065
-0.0003356984817273213
-0.0013427939269092851
-0.0016784924086366065
-0.0030212863355458916
-0.0030212863355458916
-0.0016784924086366065
-0.0010070954451819635
-0.0003356984817273213
0.0006713969634546426
0.0016784924086366065
0.0030212863355458916
0.004699778744182497
0.006042572671091783
0.007385366598001068
0.008392462043183033
0.007721065079728388
0.007049668116273747
0.007049668116273747
0.007049668116273747
0.0050354772259098195
0.003692683299000534
0.002014190890363927
-0.0003356984817273213
-0.0010070954451819635
-0.0016784924086366065
-0.0016784924086366065
-0.0003356984817273213
0.0010070954451819635
0.0003356984817273213
0.0016784924086366065
0.003692683299000534
0.005706874189364461
0.007721065079728388
0.009063859006637675
0.010406652933546959
0.011749446860456245
0.011078049897001601
0.010070954451819639
0.010406652933546959
0.008392462043183033
0.007721065079728388
0.005706874189364461
0.0023498893720912484
0.0010070954451819635
-0.0003356984817273213
-0.0016784924086366065
-0.0010070954451819635
-0.0006713969634546426
0.0006713969634546426
0.0003356984817273213
0.002014190890363927
0.003692683299000534
0.006378271152819104
0.007721065079728388
0.010406652933546959
0.012756542305638208
0.014435034714274816
0.013092240787365528
0.013092240787365528
0.011749446860456245
0.011413748378728923
0.010070954451819639
0.007721065079728388
0.004699778744182497
0.002014190890363927
-0.0010070954451819635
-0.0016784924086366065
-0.0016784924086366065
-0.0010070954451819635
0.0010070954451819635
0.0010070954451819635
0.0023498893720912484
0.0050354772259098195
0.006378271152819104
0.009063859006637675
0.012420843823910887
0.014435034714274816
0.0157778286411841
0.0157778286411841
0.015442130159456776
0.01376363775082017
0.012085145342183566
0.011078049897001601
0.007721065079728388
0.004364080262455177
0.0010070954451819635
-0.0016784924086366065
-0.0030212863355458916
-0.0030212863355458916
-0.0023498893720912484
-0.0010070954451819635
0.0003356984817273213
0.0016784924086366065
0.003356984817273213
0.006378271152819104
0.009063859006637675
0.012420843823910887
0.015106431677729458
0.0157778286411841
0.0157778286411841
0.015106431677729458
0.014435034714274816
0.013092240787365528
0.011749446860456245
0.009063859006637675
0.003692683299000534
0.0010070954451819635
-0.002014190890363927
-0.0030212863355458916
-0.0030212863355458916
-0.0023498893720912484
-0.0016784924086366065
0.0003356984817273213
0.0023498893720912484
0.004364080262455177
0.006378271152819104
0.009063859006637675
0.012756542305638208
0.015106431677729458
0.016784924086366067
0.016449225604638743
0.0157778286411841
0.014435034714274816
0.013092240787365528
0.011749446860456245
0.007721065079728388
0.004364080262455177
-0.0003356984817273213
-0.0016784924086366065
-0.0030212863355458916
-0.0030212863355458916
-0.0030212863355458916
-0.0003356984817273213
0.0010070954451819635
0.0023498893720912484
0.004364080262455177
0.007721065079728388
0.010406652933546959
0.013092240787365528
0.015106431677729458
0.016784924086366067
0.0157778286411841
0.015106431677729458
0.014435034714274816
0.012420843823910887
0.011078049897001601
0.007721065079728388
0.0050354772259098195
0.0023498893720912484
0.0003356984817273213
-0.0003356984817273213
-0.0003356984817273213
-0.0003356984817273213
0.0016784924086366065
0.0023498893720912484
0.003692683299000534
0.006378271152819104
0.009063859006637675
0.011078049897001601
0.014435034714274816
0.0157778286411841
0.016784924086366067
0.0157778286411841
0.0157778286411841
0.014435034714274816
0.013092240787365528
0.010406652933546959
0.007721065079728388
0.004364080262455177
0.002014190890363927
0.0003356984817273213
-0.0003356984817273213
-0.0003356984817273213
0.0003356984817273213
0.0023498893720912484
0.003692683299000534
0.003692683299000534
0.005706874189364461
0.007721065079728388
0.010406652933546959
0.01376363775082017
0.015106431677729458
0.015442130159456776
0.0157778286411841
0.014435034714274816
0.013092240787365528
0.011749446860456245
0.010406652933546959
0.007049668116273747
0.0023498893720912484
0.0010070954451819635
-0.0003356984817273213
-0.0003356984817273213
0.0003356984817273213
0.0010070954451819635
0.0023498893720912484
0.0023498893720912484
0.003692683299000534
0.005706874189364461
0.007721065079728388
0.010406652933546959
0.013092240787365528
0.014435034714274816
0.015106431677729458
0.014435034714274816
0.013092240787365528
0.011749446860456245
0.010406652933546959
0.008392462043183033
0.006378271152819104
0.0023498893720912484
0.0010070954451819635
-0.0006713969634546426
-0.0010070954451819635
0.0003356984817273213
0.0016784924086366065
0.0023498893720912484
0.003356984817273213
0.004699778744182497
0.007049668116273747
0.009063859006637675
0.012420843823910887
0.014435034714274816
0.0157778286411841
0.016449225604638743
0.015106431677729458
0.014435034714274816
0.013092240787365528
0.011749446860456245
0.009735255970092317
0.006042572671091783
0.0030212863355458916
-0.0003356984817273213
-0.0010070954451819635
-0.0010070954451819635
0.0003356984817273213
0.0010070954451819635
0.0010070954451819635
0.0023498893720912484
0.004364080262455177
0.006378271152819104
0.009063859006637675
0.012420843823910887
0.015106431677729458
0.016784924086366067
0.017120622568093383
0.015106431677729458
0.014435034714274816
0.013092240787365528
0.011078049897001601
0.009063859006637675
0.005706874189364461
0.0016784924086366065
-0.0010070954451819635
-0.0030212863355458916
-0.0030212863355458916
-0.0016784924086366065
-0.0003356984817273213
0.0010070954451819635
0.0023498893720912484
0.003692683299000534
0.006378271152819104
0.009735255970092317
0.013092240787365528
0.016449225604638743
0.01846341649500267
0.01846341649500267
0.017120622568093383
0.0157778286411841
0.014435034714274816
0.013092240787365528
0.010406652933546959
0.006042572671091783
0.0016784924086366065
-0.0030212863355458916
-0.004364080262455177
-0.004364080262455177
-0.0030212863355458916
-0.0023498893720912484
-0.0003356984817273213
0.0016784924086366065
0.0023498893720912484
0.006378271152819104
0.009735255970092317
0.01376363775082017
0.017120622568093383
0.020477607385366595
0.019806210421911954
0.01846341649500267
0.017120622568093383
0.0157778286411841
0.013092240787365528
0.010406652933546959
0.0050354772259098195
-0.0003356984817273213
-0.004364080262455177
-0.007049668116273747
-0.007049668116273747
-0.0050354772259098195
-0.003692683299000534
-0.002014190890363927
0.0003356984817273213
0.0023498893720912484
0.006378271152819104
0.010406652933546959
0.0157778286411841
0.021149004348821242
0.023834592202639806
0.023834592202639806
0.022491798275730522
0.020477607385366595
0.01846341649500267
0.0157778286411841
0.011749446860456245
0.0050354772259098195
-0.0010070954451819635
-0.006042572671091783
-0.009063859006637675
-0.009399557488364994
-0.008392462043183033
-0.007049668116273747
-0.004028381780727854
-0.002014190890363927
0.002014190890363927
0.006378271152819104
0.011749446860456245
0.017456321049820707
0.023163195239185166
0.027862973983367664
0.027862973983367664
0.02584878309300374
0.023163195239185166
0.021149004348821242
0.017792019531548024
0.012420843823910887
0.003692683299000534
-0.003692683299000534
-0.009735255970092317
-0.015106431677729458
-0.015106431677729458
-0.01376363775082017
-0.011078049897001601
-0.008392462043183033
-0.005706874189364461
-0.0016784924086366065
0.003692683299000534
0.010406652933546959
0.01846341649500267
0.02652018005645838
0.03189135576409552
0.03121995880064088
0.029205767910276948
0.02652018005645838
0.023163195239185166
0.01913481345845731
0.013092240787365528
0.003356984817273213
-0.006378271152819104
-0.015106431677729458
-0.020477607385366595
-0.020477607385366595
-0.01846341649500267
-0.016449225604638743
-0.012420843823910887
-0.008392462043183033
-0.004364080262455177
0.004364080262455177
0.013092240787365528
0.021820401312275882
0.03054856183718624
0.03121995880064088
0.027862973983367664
0.025177386129549097
0.021820401312275882
0.01846341649500267
0.016449225604638743
0.01376363775082017
0.010406652933546959
-0.0003356984817273213
-0.012420843823910887
-0.019806210421911954
-0.021149004348821242
-0.020477607385366595
-0.017120622568093383
-0.01376363775082017
-0.011078049897001601
-0.005706874189364461
0.003692683299000534
0.014099336232547494
0.025177386129549097
0.03121995880064088
0.02719157701991302
0.023163195239185166
0.021149004348821242
0.01846341649500267
0.016449225604638743
0.014435034714274816
0.01376363775082017
0.014099336232547494
0.011078049897001601
-0.0003356984817273213
-0.011078049897001601
-0.01376363775082017
-0.012420843823910887
-0.010070954451819639
-0.006378271152819104
-0.0030212863355458916
0.003692683299000534
0.013092240787365528
0.016784924086366067
0.012756542305638208
0.010070954451819639
0.010406652933546959
0.013092240787365528
0.014099336232547494
0.015106431677729458
0.01376363775082017
0.01376363775082017
0.016449225604638743
0.019806210421911954
0.019806210421911954
0.01812771801327535
0.01376363775082017
0.007721065079728388
0.003692683299000534
0.0016784924086366065
-0.0003356984817273213
-0.0003356984817273213
-0.0030212863355458916
-0.005706874189364461
-0.008392462043183033
-0.008728160524910353
-0.008392462043183033
-0.0050354772259098195
0.0010070954451819635
0.0050354772259098195
0.007721065079728388
0.009063859006637675
0.010406652933546959
0.0157778286411841
0.021149004348821242
0.022491798275730522
0.020477607385366595
0.0157778286411841
0.009063859006637675
0.0050354772259098195
0.0023498893720912484
0.002014190890363927
0.0010070954451819635
-0.0003356984817273213
-0.0050354772259098195
-0.007049668116273747
-0.008392462043183033
-0.009063859006637675
-0.003692683299000534
0.0050354772259098195
0.009063859006637675
0.011749446860456245
0.012420843823910887
0.014435034714274816
0.019806210421911954
0.02652018005645838
0.027862973983367664
0.025177386129549097
0.01913481345845731
0.011413748378728923
0.006378271152819104
0.003356984817273213
0.0023498893720912484
0.0016784924086366065
-0.0016784924086366065
-0.006042572671091783
-0.009735255970092317
-0.011078049897001601
-0.011413748378728923
-0.005706874189364461
0.003692683299000534
0.009063859006637675
0.011749446860456245
0.013092240787365528
0.015106431677729458
0.021149004348821242
0.02853437094682231
0.03054856183718624
0.02652018005645838
0.019806210421911954
0.010406652933546959
0.005706874189364461
0.0016784924086366065
0.0003356984817273213
-0.0003356984817273213
-0.003692683299000534
-0.009063859006637675
-0.01376363775082017
-0.016449225604638743
-0.017792019531548024
-0.008392462043183033
0.003692683299000534
0.009735255970092317
0.014435034714274816
0.01812771801327535
0.020813305867093918
0.029877164873731592
0.03927672236209659
0.03994811932555123
0.03390554665445944
0.024505989166094453
0.013092240787365528
0.0050354772259098195
0.0010070954451819635
-0.0006713969634546426
-0.0013427939269092851
-0.005706874189364461
-0.012420843823910887
-0.016449225604638743
-0.017792019531548024
-0.017792019531548024
-0.009735255970092317
0.0023498893720912484
0.009735255970092317
0.014435034714274816
0.0157778286411841
0.01846341649500267
0.02719157701991302
0.03390554665445944
0.035248340581368734
0.03054856183718624
0.021149004348821242
0.011413748378728923
0.0050354772259098195
0.0010070954451819635
-0.0050354772259098195
-0.009735255970092317
-0.011749446860456245
-0.012420843823910887
-0.015106431677729458
-0.0157778286411841
-0.014099336232547494
-0.005706874189364461
0.004364080262455177
0.009735255970092317
0.013092240787365528
0.014435034714274816
0.016449225604638743
0.023163195239185166
0.03054856183718624
0.03121995880064088
0.02584878309300374
0.01846341649500267
0.009735255970092317
0.0016784924086366065
-0.0030212863355458916
-0.004364080262455177
-0.004364080262455177
-0.003692683299000534
-0.006378271152819104
-0.010070954451819639
-0.011413748378728923
-0.010070954451819639
-0.003356984817273213
0.0050354772259098195
0.010070954451819639
0.013092240787365528
0.014435034714274816
0.0157778286411841
0.020477607385366595
0.02652018005645838
0.02652018005645838
0.022491798275730522
0.0157778286411841
0.007721065079728388
0.004364080262455177
0.0010070954451819635
-0.0016784924086366065
-0.0030212863355458916
-0.0030212863355458916
-0.004699778744182497
-0.007721065079728388
-0.008392462043183033
-0.007721065079728388
-0.0016784924086366065
0.005706874189364461
0.009063859006637675
0.011749446860456245
0.013092240787365528
0.014435034714274816
0.019470511940184634
0.023834592202639806
0.022827496757457846
0.019806210421911954
0.012420843823910887
-0.0003356984817273213
-0.007049668116273747
-0.009735255970092317
-0.009735255970092317
-0.008392462043183033
-0.007049668116273747
-0.003692683299000534
0.003356984817273213
0.007721065079728388
0.006378271152819104
0.010406652933546959
0.015106431677729458
0.016449225604638743
0.017120622568093383
0.017792019531548024
0.017120622568093383
0.021149004348821242
0.023163195239185166
0.02349889372091249
0.0157778286411841
0.0016784924086366065
-0.006378271152819104
-0.010070954451819639
-0.010406652933546959
-0.009735255970092317
-0.007049668116273747
-0.004364080262455177
-0.0006713969634546426
0.0050354772259098195
0.011078049897001601
0.011749446860456245
0.014099336232547494
0.017120622568093383
0.01846341649500267
0.017792019531548024
0.017120622568093383
0.016784924086366067
0.01846341649500267
0.022156099794003202
0.019806210421911954
0.015106431677729458
0.003692683299000534
-0.004364080262455177
-0.008392462043183033
-0.008392462043183033
-0.008392462043183033
-0.006378271152819104
-0.0050354772259098195
-0.0016784924086366065
0.003692683299000534
0.007721065079728388
0.007385366598001068
0.009063859006637675
0.012420843823910887
0.013092240787365528
0.01376363775082017
0.013092240787365528
0.013092240787365528
0.015106431677729458
0.017120622568093383
0.0157778286411841
0.007049668116273747
-0.003356984817273213
-0.009735255970092317
-0.011749446860456245
-0.011749446860456245
-0.009735255970092317
-0.008392462043183033
-0.006378271152819104
-0.0023498893720912484
0.0023498893720912484
0.009063859006637675
0.015442130159456776
0.019806210421911954
0.020477607385366595
0.021149004348821242
0.019806210421911954
0.01846341649500267
0.01846341649500267
0.019806210421911954
0.015106431677729458
0.007385366598001068
-0.0010070954451819635
-0.007049668116273747
-0.010406652933546959
-0.011078049897001601
-0.009735255970092317
-0.008392462043183033
-0.004364080262455177
-0.0016784924086366065
0.0010070954451819635
0.005706874189364461
0.011413748378728923
0.017120622568093383
0.023834592202639806
0.02652018005645838
0.02584878309300374
0.023834592202639806
0.022491798275730522
0.020477607385366595
0.017120622568093383
0.013092240787365528
0.006378271152819104
0.0010070954451819635
-0.0050354772259098195
-0.008392462043183033
-0.007385366598001068
-0.006378271152819104
-0.003692683299000534
-0.0030212863355458916
-0.0003356984817273213
0.0023498893720912484
0.005706874189364461
0.010406652933546959
0.014435034714274816
0.01846341649500267
0.021820401312275882
0.021149004348821242
0.019470511940184634
0.017120622568093383
0.014435034714274816
0.011749446860456245
0.007721065079728388
0.0023498893720912484
-0.0016784924086366065
-0.006042572671091783
-0.008392462043183033
-0.008728160524910353
-0.007385366598001068
-0.006042572671091783
-0.004364080262455177
-0.0030212863355458916
-0.0003356984817273213
0.0030212863355458916
0.006378271152819104
0.009735255970092317
0.013092240787365528
0.015106431677729458
0.014435034714274816
0.01376363775082017
0.013092240787365528
0.010406652933546959
0.009063859006637675
0.007049668116273747
0.004699778744182497
0.0016784924086366065
-0.0023498893720912484
-0.0030212863355458916
-0.0023498893720912484
-0.0013427939269092851
-0.0003356984817273213
0.0010070954451819635
0.0030212863355458916
0.0050354772259098195
0.007721065079728388
0.010406652933546959
0.013092240787365528
0.0157778286411841
0.017792019531548024
0.017120622568093383
0.016449225604638743
0.0157778286411841
0.0157778286411841
0.013092240787365528
0.011749446860456245
0.008392462043183033
0.0050354772259098195
0.003356984817273213
0.0023498893720912484
0.0023498893720912484
0.003356984817273213
0.003692683299000534
0.004364080262455177
0.005706874189364461
0.006378271152819104
0.008392462043183033
0.010406652933546959
0.013092240787365528
0.014435034714274816
0.014435034714274816
0.014435034714274816
0.014099336232547494
0.012420843823910887
0.011749446860456245
0.010406652933546959
0.007721065079728388
0.0050354772259098195
0.0023498893720912484
0.0010070954451819635
-0.0010070954451819635
-0.0016784924086366065
-0.0006713969634546426
-0.0003356984817273213
-0.0003356984817273213
-0.0003356984817273213
0.0010070954451819635
0.003692683299000534
0.0050354772259098195
0.006378271152819104
0.007721065079728388
0.009063859006637675
0.009063859006637675
0.008392462043183033
0.007721065079728388
0.007385366598001068
0.006042572671091783
0.003692683299000534
0.0023498893720912484
0.0010070954451819635
-0.0016784924086366065
-0.0023498893720912484
-0.0023498893720912484
-0.0016784924086366065
-0.0003356984817273213
0.0010070954451819635
0.0023498893720912484
0.003692683299000534
0.006042572671091783
0.007049668116273747
0.009063859006637675
0.011078049897001601
0.012420843823910887
0.013092240787365528
0.012420843823910887
0.012420843823910887
0.011749446860456245
0.011749446860456245
0.010070954451819639
0.007721065079728388
0.006378271152819104
0.0050354772259098195
0.003692683299000534
0.004364080262455177
0.004364080262455177
0.004699778744182497
0.0050354772259098195
0.006378271152819104
0.007049668116273747
0.008392462043183033
0.010406652933546959
0.011749446860456245
0.01376363775082017
0.014435034714274816
0.014435034714274816
0.013092240787365528
0.012756542305638208
0.012420843823910887
0.011078049897001601
0.008392462043183033
0.006378271152819104
0.004364080262455177
0.0030212863355458916
0.0023498893720912484
0.0010070954451819635
0.0010070954451819635
0.0016784924086366065
0.0023498893720912484
0.0023498893720912484
0.0023498893720912484
0.004364080262455177
0.0050354772259098195
0.007385366598001068
0.007721065079728388
0.009063859006637675
0.009063859006637675
0.007721065079728388
0.007721065079728388
0.005706874189364461
0.0050354772259098195
0.004028381780727854
0.0023498893720912484
-0.0003356984817273213
-0.0010070954451819635
-0.0016784924086366065
-0.0016784924086366065
-0.0010070954451819635
-0.0003356984817273213
0.0003356984817273213
0.0016784924086366065
0.0023498893720912484
0.0050354772259098195
0.005706874189364461
0.007721065079728388
0.009735255970092317
0.009735255970092317
0.010406652933546959
0.010406652933546959
0.010406652933546959
0.010070954451819639
0.010406652933546959
0.008728160524910353
0.007049668116273747
0.005706874189364461
0.0050354772259098195
0.004364080262455177
0.003692683299000534
0.0050354772259098195
0.006378271152819104
0.006042572671091783
0.006378271152819104
0.007721065079728388
0.009063859006637675
0.010406652933546959
0.011749446860456245
0.01376363775082017
0.013092240787365528
0.014435034714274816
0.013092240787365528
0.013092240787365528
0.012420843823910887
0.011749446860456245
0.009735255970092317
0.007721065079728388
0.005706874189364461
0.003692683299000534
0.003356984817273213
0.0023498893720912484
0.0023498893720912484
0.0023498893720912484
0.0023498893720912484
0.003692683299000534
0.0050354772259098195
0.004364080262455177
0.006378271152819104
0.008392462043183033
0.008392462043183033
0.009063859006637675
0.009063859006637675
0.008392462043183033
0.007721065079728388
0.007049668116273747
0.006378271152819104
0.003692683299000534
0.002014190890363927
0.0003356984817273213
-0.0010070954451819635
-0.0016784924086366065
-0.0010070954451819635
-0.0003356984817273213
-0.0003356984817273213
-0.0003356984817273213
0.0010070954451819635
0.002014190890363927
0.003356984817273213
0.0050354772259098195
0.007049668116273747
0.009063859006637675
0.010070954451819639
0.010406652933546959
0.010070954451819639
0.009735255970092317
0.009063859006637675
0.009063859006637675
0.008392462043183033
0.006378271152819104
0.004364080262455177
0.003692683299000534
0.003692683299000534
0.003692683299000534
0.004364080262455177
0.0050354772259098195
0.005706874189364461
0.006713969634546426
0.007049668116273747
0.009063859006637675
0.010406652933546959
0.011749446860456245
0.013092240787365528
0.01376363775082017
0.013092240787365528
0.013092240787365528
0.013092240787365528
0.011749446860456245
0.010406652933546959
0.008392462043183033
0.007049668116273747
0.0050354772259098195
0.004364080262455177
0.003692683299000534
0.0030212863355458916
0.0030212863355458916
0.003692683299000534
0.003692683299000534
0.003692683299000534
0.0050354772259098195
0.006042572671091783
0.006378271152819104
0.008392462043183033
0.009735255970092317
0.010070954451819639
0.009735255970092317
0.009735255970092317
0.008392462043183033
0.007721065079728388
0.006713969634546426
0.0050354772259098195
0.0030212863355458916
0.0010070954451819635
-0.0003356984817273213
-0.0003356984817273213
-0.0010070954451819635
-0.0010070954451819635
-0.0003356984817273213
-0.0003356984817273213
0.0010070954451819635
0.0016784924086366065
0.003356984817273213
0.0050354772259098195
0.007721065079728388
0.009063859006637675
0.009063859006637675
0.009735255970092317
0.009063859006637675
0.009735255970092317
0.009063859006637675
0.008392462043183033
0.007721065079728388
0.005706874189364461
0.0050354772259098195
0.003692683299000534
0.0030212863355458916
0.003692683299000534
0.004364080262455177
0.004699778744182497
0.0050354772259098195
0.006378271152819104
0.007049668116273747
0.007721065079728388
0.010406652933546959
0.011749446860456245
0.01376363775082017
0.013092240787365528
0.013092240787365528
0.013092240787365528
0.011749446860456245
0.011749446860456245
0.011078049897001601
0.009735255970092317
0.007721065079728388
0.006378271152819104
0.004699778744182497
0.004364080262455177
0.003692683299000534
0.003692683299000534
0.003692683299000534
0.003692683299000534
0.0050354772259098195
0.0050354772259098195
0.006378271152819104
0.007049668116273747
0.008728160524910353
0.010406652933546959
0.009063859006637675
0.009063859006637675
0.008728160524910353
0.007721065079728388
0.007049668116273747
0.006378271152819104
0.0050354772259098195
0.0023498893720912484
-0.0003356984817273213
-0.0016784924086366065
-0.0016784924086366065
-0.0010070954451819635
-0.0010070954451819635
-0.0003356984817273213
-0.0003356984817273213
0.0010070954451819635
0.0023498893720912484
0.003692683299000534
0.0050354772259098195
0.006378271152819104
0.009735255970092317
0.009735255970092317
0.009735255970092317
0.009735255970092317
0.010070954451819639
0.009735255970092317
0.009063859006637675
0.007721065079728388
0.006042572671091783
0.0050354772259098195
0.003692683299000534
0.003692683299000534
0.004364080262455177
0.0050354772259098195
0.005706874189364461
0.005706874189364461
0.0050354772259098195
0.007049668116273747
0.008392462043183033
0.009735255970092317
0.011749446860456245
0.013092240787365528
0.01376363775082017
0.013092240787365528
0.012756542305638208
0.012756542305638208
0.011749446860456245
0.011078049897001601
0.009063859006637675
0.007721065079728388
0.0050354772259098195
0.003692683299000534
0.0030212863355458916
0.003692683299000534
0.0023498893720912484
0.003692683299000534
0.003692683299000534
0.004699778744182497
0.0050354772259098195
0.0050354772259098195
0.006378271152819104
0.007721065079728388
0.009063859006637675
0.009063859006637675
0.009063859006637675
0.008392462043183033
0.007721065079728388
0.007049668116273747
0.006378271152819104
0.003692683299000534
0.0023498893720912484
0.0006713969634546426
-0.0006713969634546426
-0.0016784924086366065
-0.0013427939269092851
-0.0003356984817273213
0.0010070954451819635
0.0010070954451819635
0.0016784924086366065
0.003692683299000534
0.0050354772259098195
0.007721065079728388
0.007721065079728388
0.010406652933546959
0.011078049897001601
0.010406652933546959
0.010406652933546959
0.010070954451819639
0.010406652933546959
0.009735255970092317
0.009063859006637675
0.007049668116273747
0.0050354772259098195
0.004699778744182497
0.004699778744182497
0.0050354772259098195
0.0050354772259098195
0.005706874189364461
0.005706874189364461
0.006378271152819104
0.007721065079728388
0.009063859006637675
0.010070954451819639
0.011749446860456245
0.013092240787365528
0.01376363775082017
0.012420843823910887
0.011749446860456245
0.011413748378728923
0.010406652933546959
0.009063859006637675
0.007721065079728388
0.006378271152819104
0.004364080262455177
0.0023498893720912484
0.0023498893720912484
0.0016784924086366065
0.0023498893720912484
0.0023498893720912484
0.0023498893720912484
0.003692683299000534
0.003692683299000534
0.0050354772259098195
0.007385366598001068
0.007721065079728388
0.009063859006637675
0.008392462043183033
0.008728160524910353
0.007721065079728388
0.007049668116273747
0.006378271152819104
0.0050354772259098195
0.003692683299000534
0.0023498893720912484
0.0010070954451819635
0.0006713969634546426
-0.0003356984817273213
0.0003356984817273213
0.0010070954451819635
0.0016784924086366065
0.0023498893720912484
0.003692683299000534
0.0050354772259098195
0.007049668116273747
0.009063859006637675
0.009063859006637675
0.011078049897001601
0.011749446860456245
0.011749446860456245
0.011749446860456245
0.011749446860456245
0.011078049897001601
0.010406652933546959
0.009063859006637675
0.006378271152819104
0.0050354772259098195
0.004364080262455177
0.003692683299000534
0.003692683299000534
0.003692683299000534
0.004699778744182497
0.0050354772259098195
0.006378271152819104
0.006378271152819104
0.007721065079728388
0.009063859006637675
0.010406652933546959
0.010406652933546959
0.011749446860456245
0.011413748378728923
0.010406652933546959
0.009063859006637675
0.009063859006637675
0.008392462043183033
0.006378271152819104
0.003692683299000534
0.0023498893720912484
0.0016784924086366065
0.0010070954451819635
0.0010070954451819635
0.0010070954451819635
0.0016784924086366065
0.0023498893720912484
0.0023498893720912484
0.003692683299000534
0.004699778744182497
0.006378271152819104
0.007721065079728388
0.007721065079728388
0.007721065079728388
0.008392462043183033
0.008056763561455708
0.007385366598001068
0.007385366598001068
0.006378271152819104
0.0050354772259098195
0.0030212863355458916
0.002014190890363927
0.0016784924086366065
0.0023498893720912484
0.0023498893720912484
0.0030212863355458916
0.004364080262455177
0.004364080262455177
0.005706874189364461
0.006378271152819104
0.007721065079728388
0.010070954451819639
0.011749446860456245
0.012420843823910887
0.013092240787365528
0.013092240787365528
0.013092240787365528
0.012756542305638208
0.011749446860456245
0.010406652933546959
0.009399557488364994
0.007721065079728388
0.005706874189364461
0.0050354772259098195
0.004699778744182497
0.004364080262455177
0.004364080262455177
0.004364080262455177
0.0050354772259098195
0.0050354772259098195
0.0050354772259098195
0.006378271152819104
0.007721065079728388
0.009063859006637675
0.010406652933546959
0.009735255970092317
0.009735255970092317
0.009063859006637675
0.007721065079728388
0.007385366598001068
0.006378271152819104
0.0050354772259098195
0.0023498893720912484
-0.0003356984817273213
-0.0010070954451819635
-0.0003356984817273213
-0.0003356984817273213
-0.0003356984817273213
0.0003356984817273213
0.0010070954451819635
0.0023498893720912484
0.0023498893720912484
0.003692683299000534
0.005706874189364461
0.007721065079728388
0.007721065079728388
0.009063859006637675
0.010406652933546959
0.009735255970092317
0.010070954451819639
0.009735255970092317
0.009063859006637675
0.007385366598001068
0.006378271152819104
0.0050354772259098195
0.004364080262455177
0.004364080262455177
0.003692683299000534
0.0050354772259098195
0.0050354772259098195
0.006378271152819104
0.007049668116273747
0.007721065079728388
0.009063859006637675
0.011078049897001601
0.012420843823910887
0.013092240787365528
0.013092240787365528
0.013092240787365528
0.013092240787365528
0.011749446860456245
0.011078049897001601
0.009735255970092317
0.007721065079728388
0.006042572671091783
0.003692683299000534
0.003692683299000534
0.0023498893720912484
0.0023498893720912484
0.0023498893720912484
0.0023498893720912484
0.0023498893720912484
0.0030212863355458916
0.003692683299000534
0.004364080262455177
0.006042572671091783
0.007385366598001068
0.008728160524910353
0.007721065079728388
0.007721065079728388
0.007721065079728388
0.007721065079728388
0.006378271152819104
0.005706874189364461
0.004364080262455177
0.0023498893720912484
0.0010070954451819635
0.0003356984817273213
0.0010070954451819635
0.0010070954451819635
0.0016784924086366065
0.003692683299000534
0.003692683299000534
0.004028381780727854
0.0050354772259098195
0.007049668116273747
0.007721065079728388
0.010406652933546959
0.011749446860456245
0.011749446860456245
0.011749446860456245
0.011749446860456245
0.011078049897001601
0.010406652933546959
0.009063859006637675
0.008392462043183033
0.005706874189364461
0.0050354772259098195
0.003692683299000534
0.003692683299000534
0.003692683299000534
0.004364080262455177
0.004364080262455177
0.0050354772259098195
0.006042572671091783
0.007049668116273747
0.007721065079728388
0.008392462043183033
0.009735255970092317
0.010406652933546959
0.010406652933546959
0.010406652933546959
0.009063859006637675
0.008392462043183033
0.007721065079728388
0.006378271152819104
0.004364080262455177
0.0023498893720912484
0.0016784924086366065
-0.0003356984817273213
-0.0003356984817273213
-0.0003356984817273213
0.0010070954451819635
0.0010070954451819635
0.0016784924086366065
0.0023498893720912484
0.003356984817273213
0.005706874189364461
0.007049668116273747
0.008392462043183033
0.009735255970092317
0.009735255970092317
0.009735255970092317
0.009063859006637675
0.009063859006637675
0.009735255970092317
0.009063859006637675
0.007049668116273747
0.005706874189364461
0.004699778744182497
0.003692683299000534
0.003692683299000534
0.003692683299000534
0.0050354772259098195
0.0050354772259098195
0.006378271152819104
0.007049668116273747
0.007721065079728388
0.009735255970092317
0.011413748378728923
0.011749446860456245
0.012756542305638208
0.013092240787365528
0.012420843823910887
0.011413748378728923
0.011078049897001601
0.010406652933546959
0.008392462043183033
0.006378271152819104
0.005706874189364461
0.0030212863355458916
0.0016784924086366065
0.0010070954451819635
0.002014190890363927
0.0016784924086366065
0.0023498893720912484
0.0023498893720912484
0.0023498893720912484
0.003356984817273213
0.004699778744182497
0.006378271152819104
0.007721065079728388
0.008728160524910353
0.009063859006637675
0.009063859006637675
0.007721065079728388
0.007721065079728388
0.007721065079728388
0.006378271152819104
0.004699778744182497
0.003692683299000534
0.0023498893720912484
0.0010070954451819635
0.0010070954451819635
0.0006713969634546426
0.002014190890363927
0.0023498893720912484
0.003692683299000534
0.0050354772259098195
0.006378271152819104
0.007721065079728388
0.008392462043183033
0.010406652933546959
0.011749446860456245
0.011749446860456245
0.011749446860456245
0.011749446860456245
0.011413748378728923
0.010406652933546959
0.009063859006637675
0.007049668116273747
0.005706874189364461
0.003692683299000534
0.0030212863355458916
0.0023498893720912484
0.0023498893720912484
0.0023498893720912484
0.003692683299000534
0.003692683299000534
0.004699778744182497
0.005706874189364461
0.006378271152819104
0.007385366598001068
0.008392462043183033
0.009063859006637675
0.009063859006637675
0.008728160524910353
0.007721065079728388
0.007385366598001068
0.007049668116273747
0.006378271152819104
0.003692683299000534
0.003692683299000534
0.002014190890363927
0.0010070954451819635
0.0003356984817273213
0.0010070954451819635
0.0016784924086366065
0.0023498893720912484
0.0030212863355458916
0.003692683299000534
0.0050354772259098195
0.006378271152819104
0.007721065079728388
0.009735255970092317
0.010406652933546959
0.011078049897001601
0.011078049897001601
0.011413748378728923
0.010406652933546959
0.010406652933546959
0.009735255970092317
0.007721065079728388
0.006042572671091783
0.004364080262455177
0.003692683299000534
0.003356984817273213
0.004364080262455177
0.004364080262455177
0.004699778744182497
0.004699778744182497
0.0050354772259098195
0.005706874189364461
0.007721065079728388
0.009063859006637675
0.010070954451819639
0.011078049897001601
0.011078049897001601
0.009735255970092317
0.009063859006637675
0.007721065079728388
0.007721065079728388
0.006378271152819104
0.0050354772259098195
0.0023498893720912484
0.0010070954451819635
0.0010070954451819635
-0.0003356984817273213
-0.0003356984817273213
-0.0003356984817273213
0.0006713969634546426
0.0023498893720912484
0.0023498893720912484
0.004364080262455177
0.006042572671091783
0.007721065079728388
0.009063859006637675
0.010406652933546959
0.010406652933546959
0.010406652933546959
0.009735255970092317
0.009735255970092317
0.010406652933546959
0.009063859006637675
0.007721065079728388
0.006378271152819104
0.004364080262455177
0.003692683299000534
0.004364080262455177
0.003692683299000534
0.004364080262455177
0.0050354772259098195
0.006378271152819104
0.006378271152819104
0.006378271152819104
0.008392462043183033
0.010070954451819639
0.010406652933546959
0.011078049897001601
0.011749446860456245
0.011078049897001601
0.009063859006637675
0.009063859006637675
0.007721065079728388
0.006378271152819104
0.0050354772259098195
0.0023498893720912484
0.0016784924086366065
0.0003356984817273213
0.0003356984817273213
-0.0003356984817273213
0.0010070954451819635
0.0016784924086366065
0.0023498893720912484
0.0023498893720912484
0.003356984817273213
0.0050354772259098195
0.006378271152819104
0.007721065079728388
0.009735255970092317
0.009063859006637675
0.010406652933546959
0.009399557488364994
0.009735255970092317
0.009063859006637675
0.008392462043183033
0.007721065079728388
0.0050354772259098195
0.0030212863355458916
0.0030212863355458916
0.0030212863355458916
0.003692683299000534
0.004364080262455177
0.004364080262455177
0.0050354772259098195
0.006378271152819104
0.007721065079728388
0.009063859006637675
0.010070954451819639
0.010406652933546959
0.011749446860456245
0.011749446860456245
0.011749446860456245
0.010406652933546959
0.009063859006637675
0.009063859006637675
0.007721065079728388
0.0050354772259098195
0.003356984817273213
0.002014190890363927
0.0010070954451819635
0.0010070954451819635
0.0006713969634546426
0.0010070954451819635
0.0016784924086366065
0.0016784924086366065
0.0023498893720912484
0.0030212863355458916
0.0050354772259098195
0.006378271152819104
0.007721065079728388
0.009063859006637675
0.009063859006637675
0.009735255970092317
0.009063859006637675
0.009063859006637675
0.007721065079728388
0.007049668116273747
0.006378271152819104
0.004699778744182497
0.003692683299000534
0.003356984817273213
0.003356984817273213
0.003692683299000534
0.003692683299000534
0.0050354772259098195
0.006378271152819104
0.006378271152819104
0.007385366598001068
0.008392462043183033
0.010070954451819639
0.011413748378728923
0.011749446860456245
0.011078049897001601
0.011749446860456245
0.010406652933546959
0.009735255970092317
0.009063859006637675
0.007385366598001068
0.006378271152819104
0.003692683299000534
0.0016784924086366065
0.002014190890363927
0.0010070954451819635
0.0010070954451819635
0.0010070954451819635
0.0023498893720912484
0.0023498893720912484
0.003692683299000534
0.004364080262455177
0.0050354772259098195
0.007721065079728388
0.008392462043183033
0.009063859006637675
0.010070954451819639
0.009735255970092317
0.009063859006637675
0.009063859006637675
0.007721065079728388
0.007049668116273747
0.0050354772259098195
0.004364080262455177
0.0023498893720912484
0.0023498893720912484
0.0023498893720912484
0.003692683299000534
0.003692683299000534
0.004364080262455177
0.0050354772259098195
0.005706874189364461
0.007049668116273747
0.009063859006637675
0.010406652933546959
0.011078049897001601
0.011749446860456245
0.011413748378728923
0.011749446860456245
0.010406652933546959
0.009063859006637675
0.009063859006637675
0.007385366598001068
0.0050354772259098195
0.003692683299000534
0.002014190890363927
0.0003356984817273213
0.0010070954451819635
0.0010070954451819635
0.0010070954451819635
0.0016784924086366065
0.0023498893720912484
0.003692683299000534
0.004364080262455177
0.006378271152819104
0.007721065079728388
0.009063859006637675
0.010406652933546959
0.010406652933546959
0.009735255970092317
0.009735255970092317
0.009735255970092317
0.009063859006637675
0.007721065079728388
0.006378271152819104
0.004699778744182497
0.003692683299000534
0.0023498893720912484
0.0023498893720912484
0.003692683299000534
0.004364080262455177
0.003692683299000534
0.0050354772259098195
0.006042572671091783
0.006378271152819104
0.007721065079728388
0.009063859006637675
0.010406652933546959
0.011078049897001601
0.010406652933546959
0.010406652933546959
0.009063859006637675
0.008392462043183033
0.007721065079728388
0.006378271152819104
0.004364080262455177
0.0023498893720912484
0.0003356984817273213
-0.0003356984817273213
0.0003356984817273213
0.0006713969634546426
0.0010070954451819635
0.002014190890363927
0.0023498893720912484
0.003692683299000534
0.0050354772259098195
0.006378271152819104
0.007385366598001068
0.009063859006637675
0.010406652933546959
0.010406652933546959
0.010406652933546959
0.010406652933546959
0.010070954451819639
0.009063859006637675
0.007721065079728388
0.006378271152819104
0.004364080262455177
0.004699778744182497
0.0023498893720912484
0.003356984817273213
0.003692683299000534
0.003692683299000534
0.003692683299000534
0.004364080262455177
0.0050354772259098195
0.005706874189364461
0.007721065079728388
0.009063859006637675
0.009735255970092317
0.010406652933546959
0.010406652933546959
0.009735255970092317
0.009063859006637675
0.007721065079728388
0.007385366598001068
0.0050354772259098195
0.004364080262455177
0.0023498893720912484
0.0016784924086366065
-0.0003356984817273213
0.0010070954451819635
0.0006713969634546426
0.0023498893720912484
0.0023498893720912484
0.003692683299000534
0.004364080262455177
0.006378271152819104
0.007049668116273747
0.009063859006637675
0.010406652933546959
0.012420843823910887
0.011749446860456245
0.011078049897001601
0.010406652933546959
0.010406652933546959
0.010406652933546959
0.008392462043183033
0.006378271152819104
0.0050354772259098195
0.004364080262455177
0.0023498893720912484
0.0023498893720912484
0.0030212863355458916
0.0030212863355458916
0.003692683299000534
0.004028381780727854
0.004364080262455177
0.006378271152819104
0.007049668116273747
0.007721065079728388
0.008392462043183033
0.010070954451819639
0.010070954451819639
0.009063859006637675
0.008728160524910353
0.007721065079728388
0.007721065079728388
0.0050354772259098195
0.003692683299000534
0.0030212863355458916
0.0016784924086366065
0.0010070954451819635
0.0010070954451819635
0.0016784924086366065
0.0023498893720912484
0.0023498893720912484
0.004699778744182497
0.0050354772259098195
0.007049668116273747
0.007721065079728388
0.009063859006637675
0.011749446860456245
0.012420843823910887
0.012420843823910887
0.011078049897001601
0.010406652933546959
0.009735255970092317
0.009735255970092317
0.007721065079728388
0.006378271152819104
0.0050354772259098195
0.003692683299000534
0.0023498893720912484
0.0016784924086366065
0.0016784924086366065
0.0023498893720912484
0.003692683299000534
0.003692683299000534
0.003692683299000534
0.0050354772259098195
0.007049668116273747
0.007721065079728388
0.009063859006637675
0.009063859006637675
0.010070954451819639
0.009063859006637675
0.009063859006637675
0.007721065079728388
0.007721065079728388
0.006378271152819104
0.0050354772259098195
0.003692683299000534
0.0023498893720912484
0.0023498893720912484
0.0016784924086366065
0.0023498893720912484
0.003692683299000534
0.003692683299000534
0.004699778744182497
0.005706874189364461
0.006378271152819104
0.008392462043183033
0.009735255970092317
0.010406652933546959
0.011078049897001601
0.010406652933546959
0.010406652933546959
0.010406652933546959
0.008728160524910353
0.008392462043183033
0.007049668116273747
0.0050354772259098195
0.0030212863355458916
0.0023498893720912484
0.0016784924086366065
0.0010070954451819635
0.0016784924086366065
0.0023498893720912484
0.0023498893720912484
0.003356984817273213
0.004364080262455177
0.0050354772259098195
0.007049668116273747
0.007721065079728388
0.009735255970092317
0.010070954451819639
0.010406652933546959
0.010406652933546959
0.009735255970092317
0.009063859006637675
0.009063859006637675
0.007385366598001068
0.0050354772259098195
0.004364080262455177
0.0023498893720912484
0.0023498893720912484
0.0023498893720912484
0.0030212863355458916
0.003692683299000534
0.004364080262455177
0.004364080262455177
0.0050354772259098195
0.007049668116273747
0.008392462043183033
0.009063859006637675
0.010406652933546959
0.010406652933546959
0.010406652933546959
0.010070954451819639
0.009063859006637675
0.007721065079728388
0.007385366598001068
0.006378271152819104
0.004028381780727854
0.002014190890363927
0.0010070954451819635
0.0010070954451819635
0.0010070954451819635
0.0016784924086366065
0.002014190890363927
0.0023498893720912484
0.0023498893720912484
0.003692683299000534
0.006042572671091783
0.007721065079728388
0.009063859006637675
0.010406652933546959
0.010406652933546959
0.011749446860456245
0.010406652933546959
0.010406652933546959
0.009735255970092317
0.009063859006637675
0.007721065079728388
0.006378271152819104
0.004364080262455177
0.003692683299000534
0.0030212863355458916
0.003692683299000534
0.0030212863355458916
0.003692683299000534
0.003692683299000534
0.004364080262455177
0.0050354772259098195
0.005706874189364461
0.006378271152819104
0.007721065079728388
0.009063859006637675
0.009735255970092317
0.010070954451819639
0.009735255970092317
0.007721065079728388
0.007721065079728388
0.007721065079728388
0.007049668116273747
0.0050354772259098195
0.003692683299000534
0.0023498893720912484
0.0023498893720912484
0.0016784924086366065
0.0016784924086366065
0.0023498893720912484
0.003692683299000534
0.0050354772259098195
0.0050354772259098195
0.007385366598001068
0.008728160524910353
0.009735255970092317
0.010406652933546959
0.011749446860456245
0.011749446860456245
0.011413748378728923
0.010406652933546959
0.009735255970092317
0.008392462043183033
0.007049668116273747
0.0050354772259098195
0.0030212863355458916
0.0023498893720912484
0.0010070954451819635
0.0010070954451819635
0.0013427939269092851
0.0016784924086366065
0.0023498893720912484
0.0030212863355458916
0.003692683299000534
0.0050354772259098195
0.006378271152819104
0.007721065079728388
0.009063859006637675
0.009735255970092317
0.009063859006637675
0.010406652933546959
0.009735255970092317
0.009063859006637675
0.007721065079728388
0.006713969634546426
0.005706874189364461
0.004364080262455177
0.0030212863355458916
0.0023498893720912484
0.003692683299000534
0.003356984817273213
0.003692683299000534
0.003692683299000534
0.0050354772259098195
0.005706874189364461
0.007049668116273747
0.007721065079728388
0.009735255970092317
0.011749446860456245
0.011749446860456245
0.010406652933546959
0.009735255970092317
0.010070954451819639
0.009063859006637675
0.007721065079728388
0.007049668116273747
0.0050354772259098195
0.003692683299000534
0.002014190890363927
0.002014190890363927
0.0016784924086366065
0.0016784924086366065
0.0023498893720912484
0.0023498893720912484
0.003356984817273213
0.004699778744182497
0.006378271152819104
0.007049668116273747
0.007721065079728388
0.009735255970092317
0.011078049897001601
0.010406652933546959
0.010406652933546959
0.010070954451819639
0.009063859006637675
0.008392462043183033
0.007385366598001068
0.0050354772259098195
0.003692683299000534
0.0023498893720912484
0.0023498893720912484
0.0023498893720912484
0.0023498893720912484
0.0023498893720912484
0.003692683299000534
0.003692683299000534
0.004364080262455177
0.005706874189364461
0.007721065079728388
0.008728160524910353
0.010070954451819639
0.010070954451819639
0.009063859006637675
0.009063859006637675
0.009063859006637675
0.008392462043183033
0.007049668116273747
0.005706874189364461
0.004699778744182497
0.0030212863355458916
0.0023498893720912484
0.0010070954451819635
0.0010070954451819635
0.0016784924086366065
0.0023498893720912484
0.0023498893720912484
0.003692683299000534
0.0050354772259098195
0.007049668116273747
0.008392462043183033
0.009735255970092317
0.010406652933546959
0.011749446860456245
0.011078049897001601
0.010406652933546959
0.010406652933546959
0.009735255970092317
0.009063859006637675
0.007721065079728388
0.0050354772259098195
0.0030212863355458916
0.0023498893720912484
0.0010070954451819635
0.0010070954451819635
0.0023498893720912484
0.0023498893720912484
0.003356984817273213
0.0023498893720912484
0.003692683299000534
0.0050354772259098195
0.007049668116273747
0.007721065079728388
0.010406652933546959
0.010406652933546959
0.010406652933546959
0.009735255970092317
0.008728160524910353
0.008392462043183033
0.007721065079728388
0.007049668116273747
0.0050354772259098195
0.0030212863355458916
0.0023498893720912484
0.002014190890363927
0.0016784924086366065
0.0030212863355458916
0.0030212863355458916
0.003692683299000534
0.0050354772259098195
0.0050354772259098195
0.006378271152819104
0.007721065079728388
0.010070954451819639
0.011078049897001601
0.011749446860456245
0.011078049897001601
0.010406652933546959
0.009735255970092317
0.009063859006637675
0.008728160524910353
0.007049668116273747
0.0050354772259098195
0.003356984817273213
0.0023498893720912484
0.0016784924086366065
0.0016784924086366065
0.0016784924086366065
0.0023498893720912484
0.0023498893720912484
0.003692683299000534
0.003692683299000534
0.0050354772259098195
0.007049668116273747
0.007721065079728388
0.010070954451819639
0.010406652933546959
0.010406652933546959
0.009063859006637675
0.008392462043183033
0.009063859006637675
0.007721065079728388
0.006378271152819104
0.0050354772259098195
0.003356984817273213
0.0023498893720912484
0.0016784924086366065
0.002014190890363927
0.0023498893720912484
0.003692683299000534
0.003692683299000534
0.003692683299000534
0.0050354772259098195
0.007049668116273747
0.007721065079728388
0.009063859006637675
0.010406652933546959
0.010406652933546959
0.010406652933546959
0.009063859006637675
0.008728160524910353
0.008392462043183033
0.007721065079728388
0.006378271152819104
0.004364080262455177
0.0030212863355458916
0.0023498893720912484
0.0023498893720912484
0.002014190890363927
0.002014190890363927
0.0023498893720912484
0.003692683299000534
0.004364080262455177
0.004699778744182497
0.006378271152819104
0.007385366598001068
0.008728160524910353
0.010406652933546959
0.011078049897001601
0.010406652933546959
0.009735255970092317
0.009063859006637675
0.009063859006637675
0.007721065079728388
0.007049668116273747
0.004699778744182497
0.0023498893720912484
0.0023498893720912484
0.002014190890363927
0.0016784924086366065
0.0023498893720912484
0.0030212863355458916
0.003692683299000534
0.004364080262455177
0.005706874189364461
0.006378271152819104
0.008392462043183033
0.009063859006637675
0.010406652933546959
0.010406652933546959
0.010070954451819639
0.009735255970092317
0.009063859006637675
0.009063859006637675
0.007721065079728388
0.007049668116273747
0.0050354772259098195
0.0030212863355458916
0.0023498893720912484
0.0023498893720912484
0.0023498893720912484
0.0023498893720912484
0.003356984817273213
0.003692683299000534
0.004028381780727854
0.0050354772259098195
0.006378271152819104
0.008392462043183033
0.009063859006637675
0.010406652933546959
0.011413748378728923
0.010070954451819639
0.010406652933546959
0.009063859006637675
0.009063859006637675
0.008392462043183033
0.006378271152819104
0.0050354772259098195
0.0030212863355458916
0.0023498893720912484
0.0016784924086366065
0.0023498893720912484
0.0023498893720912484
0.0030212863355458916
0.004028381780727854
0.004364080262455177
0.0050354772259098195
0.006378271152819104
0.007721065079728388
0.009735255970092317
0.010406652933546959
0.010406652933546959
0.010406652933546959
0.010406652933546959
0.010070954451819639
0.009063859006637675
0.007721065079728388
0.007049668116273747
0.0050354772259098195
0.003692683299000534
0.0023498893720912484
0.0023498893720912484
0.0023498893720912484
0.0023498893720912484
0.0030212863355458916
0.004028381780727854
0.0050354772259098195
0.005706874189364461
0.007049668116273747
0.008728160524910353
0.009735255970092317
0.010406652933546959
0.010406652933546959
0.010406652933546959
0.009735255970092317
0.009063859006637675
0.009063859006637675
0.007049668116273747
0.007385366598001068
0.0050354772259098195
0.0023498893720912484
0.002014190890363927
0.0016784924086366065
0.0023498893720912484
0.0023498893720912484
0.0023498893720912484
0.0030212863355458916
0.004364080262455177
0.005706874189364461
0.006378271152819104
0.007721065079728388
0.009063859006637675
0.010070954451819639
0.010406652933546959
0.010406652933546959
0.010406652933546959
0.009735255970092317
0.009735255970092317
0.007721065079728388
0.006378271152819104
0.0050354772259098195
0.003356984817273213
0.002014190890363927
0.0016784924086366065
0.002014190890363927
0.0023498893720912484
0.0023498893720912484
0.003692683299000534
0.003692683299000534
0.004364080262455177
0.006378271152819104
0.007049668116273747
0.008392462043183033
0.010070954451819639
0.010406652933546959
0.009735255970092317
0.010070954451819639
0.009063859006637675
0.009063859006637675
0.007721065079728388
0.006378271152819104
0.004699778744182497
0.0023498893720912484
0.0023498893720912484
0.0023498893720912484
0.0023498893720912484
0.0023498893720912484
0.0030212863355458916
0.0030212863355458916
0.0050354772259098195
0.0050354772259098195
0.006378271152819104
0.007721065079728388
0.009735255970092317
0.010406652933546959
0.011078049897001601
0.011078049897001601
0.010406652933546959
0.009735255970092317
0.009063859006637675
0.008392462043183033
0.006378271152819104
0.0050354772259098195
0.0023498893720912484
0.0016784924086366065
0.0010070954451819635
0.0023498893720912484
0.0023498893720912484
0.0023498893720912484
0.0030212863355458916
0.004364080262455177
0.0050354772259098195
0.006378271152819104
0.007049668116273747
0.009063859006637675
0.010406652933546959
0.010406652933546959
0.010406652933546959
0.010406652933546959
0.009063859006637675
0.007721065079728388
0.007049668116273747
0.006378271152819104
0.004364080262455177
0.0023498893720912484
0.002014190890363927
0.002014190890363927
0.0023498893720912484
0.0023498893720912484
0.0023498893720912484
0.0030212863355458916
0.003692683299000534
0.0050354772259098195
0.007049668116273747
0.007721065079728388
0.009063859006637675
0.010406652933546959
0.010406652933546959
0.010070954451819639
0.009063859006637675
0.009063859006637675
0.008392462043183033
0.007721065079728388
0.006042572671091783
0.004364080262455177
0.0023498893720912484
0.0016784924086366065
0.0023498893720912484
0.0023498893720912484
0.0030212863355458916
0.003692683299000534
0.0023498893720912484
0.004699778744182497
0.005706874189364461
0.006713969634546426
0.007721065079728388
0.009735255970092317
0.010406652933546959
0.011078049897001601
0.010406652933546959
0.010406652933546959
0.010406652933546959
0.009063859006637675
0.008728160524910353
0.007049668116273747
0.0050354772259098195
0.0030212863355458916
0.0023498893720912484
0.0016784924086366065
0.0023498893720912484
0.003356984817273213
0.003356984817273213
0.003692683299000534
0.003692683299000534
0.0050354772259098195
0.006713969634546426
0.008392462043183033
0.009735255970092317
0.011078049897001601
0.010406652933546959
0.010070954451819639
0.009735255970092317
0.009735255970092317
0.009063859006637675
0.007049668116273747
0.005706874189364461
0.004364080262455177
0.0023498893720912484
0.0016784924086366065
0.0016784924086366065
0.0023498893720912484
0.0023498893720912484
0.0030212863355458916
0.004028381780727854
0.0050354772259098195
0.0050354772259098195
0.007049668116273747
0.007721065079728388
0.009399557488364994
0.010406652933546959
0.010406652933546959
0.010406652933546959
0.009735255970092317
0.008392462043183033
0.007721065079728388
0.007721065079728388
0.0050354772259098195
0.003692683299000534
0.0023498893720912484
0.0016784924086366065
0.0010070954451819635
0.0010070954451819635
0.0023498893720912484
0.003356984817273213
0.0030212863355458916
0.003692683299000534
0.005706874189364461
0.006378271152819104
0.007721065079728388
0.009735255970092317
0.010406652933546959
0.011078049897001601
0.010406652933546959
0.009735255970092317
0.009063859006637675
0.009063859006637675
0.007385366598001068
0.0050354772259098195
0.004364080262455177
0.0030212863355458916
0.0023498893720912484
0.002014190890363927
0.0023498893720912484
0.0030212863355458916
0.003692683299000534
0.003692683299000534
0.004364080262455177
0.005706874189364461
0.006378271152819104
0.007721065079728388
0.009399557488364994
0.010406652933546959
0.010406652933546959
0.010070954451819639
0.009063859006637675
0.009063859006637675
0.008728160524910353
0.007049668116273747
0.0050354772259098195
0.003692683299000534
0.0023498893720912484
0.0016784924086366065
0.0016784924086366065
0.0016784924086366065
0.0023498893720912484
0.0030212863355458916
0.003692683299000534
0.003692683299000534
0.0050354772259098195
0.007049668116273747
0.009063859006637675
0.010406652933546959
0.010406652933546959
0.010406652933546959
0.010406652933546959
0.009735255970092317
0.008728160524910353
0.009735255970092317
0.007721065079728388
0.006378271152819104
0.004699778744182497
0.003692683299000534
0.0023498893720912484
0.0023498893720912484
0.002014190890363927
0.0023498893720912484
0.0030212863355458916
0.0030212863355458916
0.003692683299000534
0.0050354772259098195
0.006378271152819104
0.007721065079728388
0.009063859006637675
0.010406652933546959
0.010406652933546959
0.009735255970092317
0.010406652933546959
0.009063859006637675
0.008392462043183033
0.007049668116273747
0.006042572671091783
0.004364080262455177
0.0023498893720912484
0.0016784924086366065
0.0016784924086366065
0.0023498893720912484
0.0030212863355458916
0.003356984817273213
0.004364080262455177
0.0050354772259098195
0.005706874189364461
0.007049668116273747
0.008392462043183033
0.009399557488364994
0.010406652933546959
0.010406652933546959
0.010070954451819639
0.009735255970092317
0.009063859006637675
0.008392462043183033
0.007721065079728388
0.006378271152819104
0.004364080262455177
0.0023498893720912484
0.0016784924086366065
0.0003356984817273213
0.0010070954451819635
0.0023498893720912484
0.0023498893720912484
0.003356984817273213
0.004699778744182497
0.0053711757076371405
0.007049668116273747
0.007721065079728388
0.010406652933546959
0.010406652933546959
0.010406652933546959
0.010406652933546959
0.010406652933546959
0.009063859006637675
0.009063859006637675
0.008728160524910353
0.006378271152819104
0.004364080262455177
0.0030212863355458916
0.0023498893720912484
0.0023498893720912484
0.0023498893720912484
0.0023498893720912484
0.003692683299000534
0.003692683299000534
0.004364080262455177
0.0050354772259098195
0.007049668116273747
0.007721065079728388
0.009063859006637675
0.010406652933546959
0.010406652933546959
0.009735255970092317
0.009735255970092317
0.009063859006637675
0.008056763561455708
0.007385366598001068
0.006378271152819104
0.003692683299000534
0.0023498893720912484
0.0010070954451819635
0.0016784924086366065
0.0016784924086366065
0.0023498893720912484
0.0023498893720912484
0.003692683299000534
0.004364080262455177
0.0050354772259098195
0.006378271152819104
0.009063859006637675
0.010406652933546959
0.010406652933546959
0.010406652933546959
0.011078049897001601
0.010070954451819639
0.009735255970092317
0.009063859006637675
0.007721065079728388
0.005706874189364461
0.004364080262455177
0.0023498893720912484
0.0010070954451819635
0.002014190890363927
0.0023498893720912484
0.0023498893720912484
0.003356984817273213
0.003692683299000534
0.004699778744182497
0.005706874189364461
0.006378271152819104
0.009063859006637675
0.010406652933546959
0.010406652933546959
0.010406652933546959
0.010406652933546959
0.010406652933546959
0.009063859006637675
0.007721065079728388
0.007049668116273747
0.005706874189364461
0.003692683299000534
0.0023498893720912484
0.002014190890363927
0.0023498893720912484
0.002014190890363927
0.0023498893720912484
0.0030212863355458916
0.003356984817273213
0.004364080262455177
0.005706874189364461
0.006378271152819104
0.008392462043183033
0.009735255970092317
0.010406652933546959
0.010406652933546959
