EMG Sensor 0
0.0
0.0
0.0
0.0
0.0
0.0
0.0
0.0
0.0
0.0
0.0
0.0
0.0
0.0
0.0
0.0
0.0
0.0
0.0
0.0
0.0
0.0
0.0
0.0
0.0
0.0
0.0
0.0
0.0
0.0
0.0
0.0
0.0
0.0
0.0
0.0
0.0
0.0
0.0
0.0
0.0
0.0
0.0
0.0
0.0
0.0
0.0
0.0
0.0
0.0
0.0
0.0
0.0
0.0
0.0
0.0
0.0
0.0
0.0
0.0
0.0
0.0
0.0
0.0
0.0
0.0
0.0
0.0
0.0
0.0
0.0
0.0
0.0
0.0
0.0
0.0
0.0
0.0
0.0
0.0
0.0
0.0
0.0
0.0
0.0
0.0
0.0
0.0
0.0
0.0
0.0
0.0
0.0
0.0
0.0
0.0
0.0
0.0
0.0
0.0
0.0
0.0
0.0
0.0
0.0
0.0
0.0
0.0
0.0
0.0
0.0
0.0
0.0
0.0
0.0
0.0
0.0
0.0
0.0
0.0
0.0
0.0
0.0
0.0
0.0
0.0
0.0
0.0
0.0
0.0
0.0
0.0
0.0
0.0
0.0
0.0
0.0
0.0
0.0
0.0
0.0
0.0
0.0
0.0
0.0
0.0
0.0
0.0
0.0
0.0
0.0
0.0
0.0
0.0
0.0
0.0
0.0
0.0
0.0
0.0
0.0
0.0
0.0
0.0
0.0
0.0
0.0
0.0
0.0
0.0
0.0
0.0
0.0
0.0
0.0
0.0
0.0
0.0
0.0
0.0
0.0
0.0
0.0
0.0
0.0
0.0
0.0
0.0
0.0
0.0
0.0
0.0
0.0
0.0
0.0
0.0
0.0
0.0
0.0
0.0
0.0
0.0
0.0
0.0
0.0
0.0
0.0
0.0
0.0
0.0
0.0
0.0
0.0
0.0
0.0
0.0
0.0
0.0
0.0
0.0
0.0
0.0
0.0
0.0
0.0
0.0
0.0
0.0
0.0
0.0
0.0
0.0
0.0
0.0
0.0
0.0
0.0
0.0
0.0
0.0
0.0
0.0
0.0
0.0
0.0
0.0
0.0
0.0
0.0
0.0
0.0
0.0
0.0
0.0
0.0
0.0
0.0
0.0
0.0
0.0
0.0
0.0
0.0
0.0
0.0
0.0
0.0
0.0
0.0
0.0
0.0
0.0
0.0
0.0
0.0
0.0
0.0
0.0
0.0
0.0
0.0
0.0
0.0
0.0
0.0
0.0
0.0
0.0
0.0
0.0
0.0
0.0
0.0
0.0
0.0
0.0
0.0
0.0
0.0
0.0
0.0
0.0
0.0
0.0
0.0
0.0
0.0
0.0
0.0
0.0
0.0
0.0
0.0
0.0
0.0
0.0
0.0
0.0
0.0
0.0
0.0
0.0
0.0
0.0
0.0
0.0
0.0
0.0
0.0
0.0
0.0
0.0
0.0
0.0
0.0
0.0
0.0
0.0
0.0
0.0
0.0
0.0
0.0
0.0
0.0
0.0
0.0
0.0
0.0
0.0
0.0
0.0
0.0
0.0
0.0
0.0
0.0
0.0
0.0
0.0
0.0
0.0
0.0
0.0
0.0
0.0
0.0
0.0
0.0
0.0
0.0
0.0
0.0
0.0
0.0
0.0
0.0
0.0
0.0
0.0
0.0
0.0
0.0
0.0
0.0
0.0
0.0
0.0
0.0
0.0
0.0
0.0
0.0
0.0
0.0
0.0
0.0
0.0
0.0
0.0
0.0
0.0
0.0
0.0
0.0
0.0
0.0
0.0
0.0
0.0
0.0
0.0
0.0
0.0
0.0
0.0
0.0
0.0
0.0
0.0
0.0
0.0
0.0
0.0
0.0
0.0
0.0
0.0
0.0
0.0
0.0
0.0
0.0
0.0
0.0
0.0
0.0
0.0
0.0
0.0
0.0
0.0
0.0
0.0
0.0
0.0
0.0
0.0
0.0
0.0
0.0
0.0
0.0
0.0
0.0
0.0
0.0
0.0
0.0
0.0
0.0
0.0
0.0
0.0
0.0
0.0
0.0
0.0
0.0
0.0
0.0
0.0
0.0
0.0
0.0
0.0
0.0
0.0
0.0
0.0
0.0
0.0
0.0
0.0
0.0
0.0
0.0
0.0
0.0
0.0
0.0
0.0
0.0
0.0
0.0
0.0
0.0
0.0
0.0
0.0
0.0
0.0
0.0
0.0
0.0
0.0
0.0
0.0
0.0
0.0
0.0
0.0
0.0
0.0
0.0
0.0
0.0
0.0
0.0
0.0
0.0
0.0
0.0
0.0
0.0
0.0
0.0
0.0
0.0
0.0
0.0
0.0
0.0
0.0
0.0
0.0
0.0
0.0
0.0
0.0
0.0
0.0
0.0
0.0
0.0
0.0
0.0
0.0
0.0
0.0
0.0
0.0
0.0
0.0
0.0
0.0
0.0
0.0
0.0
0.0
0.0
0.0
0.0
0.0
0.0
0.0
0.0
0.0
0.0
0.0
0.0
0.0
0.0
0.0
0.0
0.0
0.0
0.0
0.0
0.0
0.0
0.0
0.0
0.0
0.0
0.0
0.0
0.0
0.0
0.0
0.0
0.0
0.0
0.0
0.0
0.0
0.0
0.0
0.0
0.0
0.0
0.0
0.0
0.0
0.0
0.0
0.0
0.0
0.0
0.0
0.0
0.0
0.0
0.0
0.0
0.0
0.0
0.0
0.0
0.0
0.0
0.0
0.0
0.0
0.0
0.0
0.0
0.0
0.0
0.0
0.0
0.0
0.0
0.0
0.0
0.0
0.0
0.0
0.0
0.0
0.0
0.0
0.0
0.0
0.0
0.0
0.0
0.0
0.0
0.0
0.0
0.0
0.0
0.0
0.0
0.0
0.0
0.0
0.0
0.0
0.0
0.0
0.0
0.0
0.0
0.0
0.0
0.0
0.0
0.0
0.0
0.0
0.0
0.0
0.0
0.0
0.0
0.0
0.0
0.0
-0.0003356984817273213
0.009063859006637675
0.009735255970092317
0.008392462043183033
0.006042572671091783
0.004364080262455177
0.0023498893720912484
0.0016784924086366065
0.0016784924086366065
0.0023498893720912484
0.0023498893720912484
0.0023498893720912484
0.003692683299000534
0.0030212863355458916
0.004364080262455177
0.006042572671091783
0.007385366598001068
0.009063859006637675
0.010070954451819639
0.010406652933546959
0.010070954451819639
0.009063859006637675
0.009063859006637675
0.007721065079728388
0.007049668116273747
0.0050354772259098195
0.003692683299000534
0.0023498893720912484
0.0010070954451819635
0.0010070954451819635
0.0013427939269092851
0.002014190890363927
0.0023498893720912484
0.0023498893720912484
0.003692683299000534
0.003692683299000534
0.006378271152819104
0.007721065079728388
0.009063859006637675
0.010406652933546959
0.010406652933546959
0.010406652933546959
0.009735255970092317
0.009063859006637675
0.007721065079728388
0.007385366598001068
0.006042572671091783
0.0050354772259098195
0.003356984817273213
0.0023498893720912484
0.002014190890363927
0.0016784924086366065
0.0023498893720912484
0.003356984817273213
0.003692683299000534
0.004364080262455177
0.005706874189364461
0.007385366598001068
0.008392462043183033
0.009063859006637675
0.010406652933546959
0.010406652933546959
0.010406652933546959
0.010406652933546959
0.009735255970092317
0.009063859006637675
0.007721065079728388
0.006378271152819104
0.003692683299000534
0.0030212863355458916
0.0023498893720912484
0.0013427939269092851
0.0010070954451819635
0.0023498893720912484
0.0030212863355458916
0.003356984817273213
0.003692683299000534
0.0050354772259098195
0.006378271152819104
0.007721065079728388
0.009063859006637675
0.010406652933546959
0.010406652933546959
0.010070954451819639
0.009063859006637675
0.009063859006637675
0.008392462043183033
0.007721065079728388
0.006378271152819104
0.004364080262455177
0.0030212863355458916
0.0023498893720912484
0.0023498893720912484
0.0023498893720912484
0.0023498893720912484
0.003692683299000534
0.003356984817273213
0.003692683299000534
0.0050354772259098195
0.007049668116273747
0.007721065079728388
0.009735255970092317
0.010406652933546959
0.010406652933546959
0.010406652933546959
0.009735255970092317
0.010070954451819639
0.009063859006637675
0.007721065079728388
0.006378271152819104
0.0050354772259098195
0.003692683299000534
0.0023498893720912484
0.0016784924086366065
0.002014190890363927
0.0016784924086366065
0.0023498893720912484
0.0030212863355458916
0.003692683299000534
0.0050354772259098195
0.007049668116273747
0.008392462043183033
0.009735255970092317
0.010406652933546959
0.010406652933546959
0.010406652933546959
0.009735255970092317
0.008728160524910353
0.008392462043183033
0.007385366598001068
0.005706874189364461
0.004364080262455177
0.003692683299000534
0.0023498893720912484
0.0013427939269092851
0.0016784924086366065
0.0023498893720912484
0.0023498893720912484
0.003692683299000534
0.004028381780727854
0.004699778744182497
0.006378271152819104
0.007721065079728388
0.009063859006637675
0.010406652933546959
0.010406652933546959
0.010070954451819639
0.009063859006637675
0.009063859006637675
0.007721065079728388
0.007049668116273747
0.0050354772259098195
0.003692683299000534
0.0016784924086366065
0.0016784924086366065
0.0013427939269092851
0.0016784924086366065
0.0023498893720912484
0.003692683299000534
0.003356984817273213
0.004364080262455177
0.005706874189364461
0.007049668116273747
0.007721065079728388
0.009063859006637675
0.010406652933546959
0.011413748378728923
0.010406652933546959
0.009063859006637675
0.009063859006637675
0.008392462043183033
0.007385366598001068
0.006042572671091783
0.004699778744182497
0.0023498893720912484
0.0023498893720912484
0.0016784924086366065
0.0023498893720912484
0.0023498893720912484
0.003692683299000534
0.004364080262455177
0.004364080262455177
0.0050354772259098195
0.007049668116273747
0.009063859006637675
0.009735255970092317
0.010406652933546959
0.010406652933546959
0.010406652933546959
0.010406652933546959
0.009399557488364994
0.009063859006637675
0.007721065079728388
0.006378271152819104
0.004364080262455177
0.0023498893720912484
0.002014190890363927
0.0016784924086366065
0.002014190890363927
0.0023498893720912484
0.0023498893720912484
0.003692683299000534
0.003692683299000534
0.0050354772259098195
0.006378271152819104
0.007721065079728388
0.009399557488364994
0.010406652933546959
0.010406652933546959
0.010406652933546959
0.009735255970092317
0.009063859006637675
0.008392462043183033
0.008392462043183033
0.006378271152819104
0.003692683299000534
0.0023498893720912484
0.0016784924086366065
0.0010070954451819635
0.0016784924086366065
0.0023498893720912484
0.0030212863355458916
0.003692683299000534
0.004364080262455177
0.0050354772259098195
0.007049668116273747
0.007721065079728388
0.009063859006637675
0.010406652933546959
0.010406652933546959
0.010406652933546959
0.009735255970092317
0.009063859006637675
0.008392462043183033
0.007721065079728388
0.006378271152819104
0.004364080262455177
0.0030212863355458916
0.0016784924086366065
0.002014190890363927
0.0010070954451819635
0.0016784924086366065
0.0030212863355458916
0.003692683299000534
0.0050354772259098195
0.0050354772259098195
0.006378271152819104
0.008728160524910353
0.009735255970092317
0.010406652933546959
0.010406652933546959
0.010406652933546959
0.010406652933546959
0.009063859006637675
0.008392462043183033
0.007721065079728388
0.005706874189364461
0.003692683299000534
0.0023498893720912484
0.0010070954451819635
0.0016784924086366065
0.0023498893720912484
0.002014190890363927
0.0023498893720912484
0.003356984817273213
0.003692683299000534
0.004364080262455177
0.006378271152819104
0.007721065079728388
0.009063859006637675
0.010070954451819639
0.010406652933546959
0.010406652933546959
0.010406652933546959
0.009735255970092317
0.007721065079728388
0.007721065079728388
0.006378271152819104
0.004364080262455177
0.0023498893720912484
0.0016784924086366065
0.0016784924086366065
0.0023498893720912484
0.0023498893720912484
0.0030212863355458916
0.003692683299000534
0.004364080262455177
0.0050354772259098195
0.006378271152819104
0.007721065079728388
0.009735255970092317
0.010406652933546959
0.010406652933546959
0.010406652933546959
0.010406652933546959
0.009063859006637675
0.007721065079728388
0.007049668116273747
0.005706874189364461
0.003692683299000534
0.0023498893720912484
0.0010070954451819635
0.0010070954451819635
0.0010070954451819635
0.0010070954451819635
0.0023498893720912484
0.0023498893720912484
0.003692683299000534
0.005706874189364461
0.006042572671091783
0.007721065079728388
0.009735255970092317
0.010406652933546959
0.010406652933546959
0.010406652933546959
0.009735255970092317
0.009735255970092317
0.009063859006637675
0.007385366598001068
0.006378271152819104
0.004364080262455177
0.0030212863355458916
0.0016784924086366065
0.0010070954451819635
0.0016784924086366065
0.0023498893720912484
0.0023498893720912484
0.003692683299000534
0.004699778744182497
0.0050354772259098195
0.006378271152819104
0.007721065079728388
0.010406652933546959
0.011078049897001601
0.010406652933546959
0.009735255970092317
0.010406652933546959
0.009063859006637675
0.008392462043183033
0.007049668116273747
0.0050354772259098195
0.003692683299000534
0.0023498893720912484
0.0010070954451819635
0.0010070954451819635
0.0016784924086366065
0.0030212863355458916
0.003356984817273213
0.003692683299000534
0.004699778744182497
0.0050354772259098195
0.005706874189364461
0.007721065079728388
0.009735255970092317
0.010406652933546959
0.010406652933546959
0.010406652933546959
0.009735255970092317
0.010070954451819639
0.008728160524910353
0.007721065079728388
0.0050354772259098195
0.004364080262455177
0.0023498893720912484
0.0016784924086366065
0.0010070954451819635
0.002014190890363927
0.0023498893720912484
0.0023498893720912484
0.003692683299000534
0.004364080262455177
0.004699778744182497
0.006378271152819104
0.008392462043183033
0.009735255970092317
0.010406652933546959
0.011078049897001601
0.009735255970092317
0.009735255970092317
0.009735255970092317
0.008728160524910353
0.007049668116273747
0.0050354772259098195
0.003692683299000534
0.0023498893720912484
0.0010070954451819635
0.0006713969634546426
0.0016784924086366065
0.0023498893720912484
0.0030212863355458916
0.003692683299000534
0.004699778744182497
0.005706874189364461
0.006378271152819104
0.009063859006637675
0.010406652933546959
0.011749446860456245
0.011078049897001601
0.010406652933546959
0.010406652933546959
0.010070954451819639
0.009063859006637675
0.007721065079728388
0.006378271152819104
0.004364080262455177
0.0023498893720912484
0.0003356984817273213
0.0003356984817273213
0.0010070954451819635
0.0010070954451819635
0.0023498893720912484
0.0023498893720912484
0.0030212863355458916
0.0050354772259098195
0.006378271152819104
0.008392462043183033
0.009735255970092317
0.011749446860456245
0.011413748378728923
0.011078049897001601
0.010406652933546959
0.009735255970092317
0.009063859006637675
0.007721065079728388
0.0050354772259098195
0.004364080262455177
0.0023498893720912484
0.0016784924086366065
0.0010070954451819635
0.0010070954451819635
0.0023498893720912484
0.0023498893720912484
0.003692683299000534
0.004364080262455177
0.006378271152819104
0.007721065079728388
0.009735255970092317
0.010406652933546959
0.011749446860456245
0.013092240787365528
0.011749446860456245
0.010406652933546959
0.010406652933546959
0.009063859006637675
0.007721065079728388
0.006042572671091783
0.003692683299000534
0.0023498893720912484
0.0010070954451819635
0.0010070954451819635
0.0010070954451819635
0.002014190890363927
0.0016784924086366065
0.0023498893720912484
0.003692683299000534
0.004699778744182497
0.006378271152819104
0.008392462043183033
0.010406652933546959
0.011078049897001601
0.011749446860456245
0.011078049897001601
0.010406652933546959
0.009063859006637675
0.008392462043183033
0.007721065079728388
0.005706874189364461
0.003692683299000534
0.0010070954451819635
0.0010070954451819635
-0.0003356984817273213
-0.0003356984817273213
0.0016784924086366065
0.0023498893720912484
0.0023498893720912484
0.003692683299000534
0.004364080262455177
0.007049668116273747
0.009063859006637675
0.010406652933546959
0.011749446860456245
0.012756542305638208
0.011749446860456245
0.010406652933546959
0.010406652933546959
0.009735255970092317
0.007721065079728388
0.0050354772259098195
0.0023498893720912484
0.0016784924086366065
0.0006713969634546426
-0.0003356984817273213
-0.0003356984817273213
0.0016784924086366065
0.0016784924086366065
0.0023498893720912484
0.003692683299000534
0.004699778744182497
0.007049668116273747
0.009063859006637675
0.010406652933546959
0.011078049897001601
0.012420843823910887
0.011749446860456245
0.011078049897001601
0.010406652933546959
0.009063859006637675
0.007721065079728388
0.0050354772259098195
0.0030212863355458916
0.0003356984817273213
-0.0006713969634546426
-0.0003356984817273213
-0.0006713969634546426
-0.0003356984817273213
0.0016784924086366065
0.0023498893720912484
0.0030212863355458916
0.004699778744182497
0.006378271152819104
0.009735255970092317
0.011749446860456245
0.012420843823910887
0.013092240787365528
0.013092240787365528
0.012420843823910887
0.011078049897001601
0.009735255970092317
0.007721065079728388
0.005706874189364461
0.0023498893720912484
0.0010070954451819635
-0.0003356984817273213
-0.0010070954451819635
-0.0003356984817273213
-0.0003356984817273213
0.0010070954451819635
0.0023498893720912484
0.0023498893720912484
0.004364080262455177
0.007049668116273747
0.009399557488364994
0.011749446860456245
0.013092240787365528
0.01376363775082017
0.013092240787365528
0.012420843823910887
0.011078049897001601
0.010406652933546959
0.008728160524910353
0.006042572671091783
0.0023498893720912484
0.0003356984817273213
-0.0016784924086366065
-0.0016784924086366065
-0.0016784924086366065
-0.0016784924086366065
0.0003356984817273213
0.002014190890363927
0.0023498893720912484
0.0050354772259098195
0.007385366598001068
0.010070954451819639
0.013092240787365528
0.014435034714274816
0.014435034714274816
0.014435034714274816
0.014435034714274816
0.012420843823910887
0.010406652933546959
0.009063859006637675
0.005706874189364461
0.0023498893720912484
-0.0003356984817273213
-0.002014190890363927
-0.0030212863355458916
-0.0030212863355458916
-0.0006713969634546426
-0.0003356984817273213
0.0010070954451819635
0.0023498893720912484
0.0050354772259098195
0.007721065079728388
0.011749446860456245
0.014435034714274816
0.015106431677729458
0.015106431677729458
0.015106431677729458
0.013427939269092852
0.012420843823910887
0.011749446860456245
0.009063859006637675
0.0050354772259098195
0.0010070954451819635
-0.0016784924086366065
-0.004364080262455177
-0.003356984817273213
-0.0030212863355458916
-0.002014190890363927
-0.0003356984817273213
0.0010070954451819635
0.0023498893720912484
0.0050354772259098195
0.007721065079728388
0.011078049897001601
0.015106431677729458
0.017120622568093383
0.017120622568093383
0.0157778286411841
0.013092240787365528
0.011749446860456245
0.012420843823910887
0.010406652933546959
0.006378271152819104
0.002014190890363927
-0.0030212863355458916
-0.004364080262455177
-0.004699778744182497
-0.004364080262455177
-0.0030212863355458916
-0.0010070954451819635
0.0010070954451819635
0.0023498893720912484
0.0050354772259098195
0.007721065079728388
0.012085145342183566
0.016449225604638743
0.017120622568093383
0.016449225604638743
0.0157778286411841
0.015106431677729458
0.013092240787365528
0.013092240787365528
0.012420843823910887
0.007721065079728388
0.0016784924086366065
-0.0030212863355458916
-0.005706874189364461
-0.005706874189364461
-0.005706874189364461
-0.004699778744182497
-0.0030212863355458916
-0.0010070954451819635
0.0010070954451819635
0.004364080262455177
0.008728160524910353
0.013092240787365528
0.017120622568093383
0.017120622568093383
0.0157778286411841
0.014770733196002136
0.014435034714274816
0.013092240787365528
0.013092240787365528
0.014435034714274816
0.009735255970092317
0.0023498893720912484
-0.004364080262455177
-0.007049668116273747
-0.008392462043183033
-0.007385366598001068
-0.005706874189364461
-0.004364080262455177
-0.0023498893720912484
0.0003356984817273213
0.004699778744182497
0.009063859006637675
0.01376363775082017
0.017120622568093383
0.017120622568093383
0.017120622568093383
0.016784924086366067
0.0157778286411841
0.014435034714274816
0.014435034714274816
0.0157778286411841
0.01376363775082017
0.0050354772259098195
-0.0023498893720912484
-0.007049668116273747
-0.009735255970092317
-0.008728160524910353
-0.007049668116273747
-0.005706874189364461
-0.0030212863355458916
-0.0003356984817273213
0.004028381780727854
0.009735255970092317
0.014770733196002136
0.0157778286411841
0.01812771801327535
0.01846341649500267
0.017120622568093383
0.0157778286411841
0.015106431677729458
0.015442130159456776
0.017792019531548024
0.0157778286411841
0.006378271152819104
-0.0030212863355458916
-0.009063859006637675
-0.010406652933546959
-0.011078049897001601
-0.008392462043183033
-0.007049668116273747
-0.005706874189364461
-0.0016784924086366065
0.003692683299000534
0.010070954451819639
0.015106431677729458
0.0157778286411841
0.017120622568093383
0.017792019531548024
0.017792019531548024
0.0157778286411841
0.0157778286411841
0.016449225604638743
0.017792019531548024
0.017120622568093383
0.007049668116273747
-0.0030212863355458916
-0.009063859006637675
-0.011413748378728923
-0.011078049897001601
-0.009735255970092317
-0.007049668116273747
-0.004364080262455177
-0.0016784924086366065
0.003692683299000534
0.010406652933546959
0.015442130159456776
0.015106431677729458
0.017120622568093383
0.01846341649500267
0.017120622568093383
0.0157778286411841
0.015442130159456776
0.016784924086366067
0.01846341649500267
0.017120622568093383
0.007721065079728388
-0.0030212863355458916
-0.009063859006637675
-0.012085145342183566
-0.012085145342183566
-0.010406652933546959
-0.008392462043183033
-0.006042572671091783
-0.0023498893720912484
0.003692683299000534
0.010406652933546959
0.015106431677729458
0.0157778286411841
0.017120622568093383
0.01812771801327535
0.017792019531548024
0.016449225604638743
0.0157778286411841
0.017120622568093383
0.01846341649500267
0.01846341649500267
0.009063859006637675
-0.0023498893720912484
-0.009063859006637675
-0.011749446860456245
-0.011749446860456245
-0.009735255970092317
-0.008392462043183033
-0.005706874189364461
-0.0016784924086366065
0.003692683299000534
0.011078049897001601
0.014099336232547494
0.015106431677729458
0.017120622568093383
0.01846341649500267
0.017792019531548024
0.017120622568093383
0.016449225604638743
0.017792019531548024
0.019806210421911954
0.01846341649500267
0.010070954451819639
-0.0016784924086366065
-0.009063859006637675
-0.011749446860456245
-0.011749446860456245
-0.011078049897001601
-0.008392462043183033
-0.007049668116273747
-0.0030212863355458916
0.003692683299000534
0.011078049897001601
0.014435034714274816
0.0157778286411841
0.017792019531548024
0.01846341649500267
0.017120622568093383
0.016449225604638743
0.015106431677729458
0.017120622568093383
0.019806210421911954
0.019470511940184634
0.009735255970092317
-0.0023498893720912484
-0.011078049897001601
-0.014435034714274816
-0.01376363775082017
-0.011413748378728923
-0.009735255970092317
-0.007385366598001068
-0.003692683299000534
0.003692683299000534
0.011078049897001601
0.013092240787365528
0.014099336232547494
0.017120622568093383
0.01846341649500267
0.01846341649500267
0.016784924086366067
0.0157778286411841
0.017792019531548024
0.021149004348821242
0.019806210421911954
0.011749446860456245
-0.0016784924086366065
-0.011078049897001601
-0.014435034714274816
-0.014435034714274816
-0.012420843823910887
-0.009735255970092317
-0.007049668116273747
-0.0030212863355458916
0.0023498893720912484
0.011749446860456245
0.013092240787365528
0.013092240787365528
0.017120622568093383
0.01913481345845731
0.01846341649500267
0.017120622568093383
0.0157778286411841
0.01913481345845731
0.021820401312275882
0.021820401312275882
0.012756542305638208
-0.0016784924086366065
-0.011078049897001601
-0.015442130159456776
-0.0157778286411841
-0.014435034714274816
-0.011749446860456245
-0.008392462043183033
-0.004364080262455177
0.003692683299000534
0.011749446860456245
0.013092240787365528
0.01376363775082017
0.017120622568093383
0.01846341649500267
0.019806210421911954
0.017792019531548024
0.016449225604638743
0.019806210421911954
0.02349889372091249
0.023834592202639806
0.015106431677729458
-0.0016784924086366065
-0.012420843823910887
-0.016449225604638743
-0.017792019531548024
-0.016449225604638743
-0.012756542305638208
-0.009735255970092317
-0.005706874189364461
0.0023498893720912484
0.012085145342183566
0.012756542305638208
0.013092240787365528
0.01846341649500267
0.021149004348821242
0.021149004348821242
0.01913481345845731
0.01846341649500267
0.021149004348821242
0.026184481574731057
0.02652018005645838
0.017792019531548024
-0.0003356984817273213
-0.01376363775082017
-0.01913481345845731
-0.020477607385366595
-0.01913481345845731
-0.016449225604638743
-0.012420843823910887
-0.007049668116273747
0.0023498893720912484
0.012420843823910887
0.010406652933546959
0.012420843823910887
0.01846341649500267
0.021149004348821242
0.022491798275730522
0.021149004348821242
0.020477607385366595
0.024505989166094453
0.03054856183718624
0.03054856183718624
0.023834592202639806
0.0050354772259098195
-0.012420843823910887
-0.019806210421911954
-0.021820401312275882
-0.020477607385366595
-0.017120622568093383
-0.01376363775082017
-0.008392462043183033
0.0016784924086366065
0.009063859006637675
0.007721065079728388
0.011078049897001601
0.017120622568093383
0.01913481345845731
0.019806210421911954
0.020477607385366595
0.01846341649500267
0.02349889372091249
0.02853437094682231
0.02853437094682231
0.023163195239185166
0.007721065079728388
-0.009063859006637675
-0.016449225604638743
-0.01913481345845731
-0.017792019531548024
-0.015106431677729458
-0.012420843823910887
-0.007721065079728388
0.0013427939269092851
0.006378271152819104
0.0030212863355458916
0.007721065079728388
0.015106431677729458
0.01846341649500267
0.019470511940184634
0.01812771801327535
0.01846341649500267
0.023163195239185166
0.02853437094682231
0.029205767910276948
0.025177386129549097
0.009735255970092317
-0.008392462043183033
-0.016449225604638743
-0.01812771801327535
-0.017792019531548024
-0.015442130159456776
-0.012420843823910887
-0.007049668116273747
0.0023498893720912484
0.0050354772259098195
0.0023498893720912484
0.007049668116273747
0.014099336232547494
0.017792019531548024
0.019470511940184634
0.01846341649500267
0.018799114976729987
0.023834592202639806
0.029205767910276948
0.03054856183718624
0.02652018005645838
0.011078049897001601
-0.006378271152819104
-0.015106431677729458
-0.017792019531548024
-0.016449225604638743
-0.01376363775082017
-0.011749446860456245
-0.007049668116273747
0.0016784924086366065
0.004364080262455177
0.0010070954451819635
0.006378271152819104
0.013092240787365528
0.017120622568093383
0.01846341649500267
0.01846341649500267
0.017456321049820707
0.023163195239185166
0.030212863355458915
0.03121995880064088
0.02652018005645838
0.015106431677729458
-0.0023498893720912484
-0.012756542305638208
-0.015106431677729458
-0.015106431677729458
-0.01376363775082017
-0.011749446860456245
-0.007721065079728388
-0.0003356984817273213
-0.0003356984817273213
-0.0030212863355458916
0.0023498893720912484
0.011749446860456245
0.015106431677729458
0.017120622568093383
0.017792019531548024
0.017792019531548024
0.023163195239185166
0.029205767910276948
0.029877164873731592
0.025177386129549097
0.015106431677729458
-0.0030212863355458916
-0.011749446860456245
-0.015106431677729458
-0.0157778286411841
-0.01376363775082017
-0.011078049897001601
-0.007049668116273747
-0.0003356984817273213
-0.0010070954451819635
-0.0030212863355458916
0.003692683299000534
0.011749446860456245
0.0157778286411841
0.017120622568093383
0.01846341649500267
0.01846341649500267
0.023163195239185166
0.029205767910276948
0.029205767910276948
0.02584878309300374
0.014435034714274816
-0.0016784924086366065
-0.011749446860456245
-0.01376363775082017
-0.01376363775082017
-0.012420843823910887
-0.010406652933546959
-0.006378271152819104
0.0010070954451819635
0.0010070954451819635
-0.0010070954451819635
0.0050354772259098195
0.012420843823910887
0.0157778286411841
0.017120622568093383
0.017120622568093383
0.017120622568093383
0.021149004348821242
0.02652018005645838
0.02752727550164034
0.023163195239185166
0.012085145342183566
-0.003692683299000534
-0.012420843823910887
-0.014435034714274816
-0.012756542305638208
-0.011078049897001601
-0.008728160524910353
-0.004699778744182497
0.0023498893720912484
0.0016784924086366065
-0.0003356984817273213
0.006042572671091783
0.012420843823910887
0.0157778286411841
0.017792019531548024
0.017456321049820707
0.017120622568093383
0.021149004348821242
0.02584878309300374
0.02652018005645838
0.022491798275730522
0.011749446860456245
-0.003692683299000534
-0.011078049897001601
-0.013092240787365528
-0.012420843823910887
-0.011078049897001601
-0.009063859006637675
-0.004364080262455177
0.0023498893720912484
0.0023498893720912484
-0.0003356984817273213
0.0050354772259098195
0.012420843823910887
0.0157778286411841
0.017120622568093383
0.0157778286411841
0.0157778286411841
0.020813305867093918
0.02584878309300374
0.02584878309300374
0.022491798275730522
0.011749446860456245
-0.0030212863355458916
-0.011078049897001601
-0.013092240787365528
-0.012756542305638208
-0.011078049897001601
-0.008392462043183033
-0.004364080262455177
0.003356984817273213
0.0030212863355458916
-0.0003356984817273213
0.0050354772259098195
0.011749446860456245
0.015106431677729458
0.0157778286411841
0.0157778286411841
0.017120622568093383
0.021149004348821242
0.02584878309300374
0.026184481574731057
0.023163195239185166
0.011749446860456245
-0.004364080262455177
-0.011749446860456245
-0.01376363775082017
-0.01376363775082017
-0.011078049897001601
-0.009735255970092317
-0.004699778744182497
0.0030212863355458916
0.0030212863355458916
0.0010070954451819635
0.0050354772259098195
0.012756542305638208
0.0157778286411841
0.016449225604638743
0.0157778286411841
0.016449225604638743
0.021149004348821242
0.02652018005645838
0.02652018005645838
0.022491798275730522
0.010406652933546959
-0.005706874189364461
-0.012420843823910887
-0.01376363775082017
-0.013092240787365528
-0.011413748378728923
-0.009735255970092317
-0.0050354772259098195
0.003692683299000534
0.003356984817273213
0.0006713969634546426
0.005706874189364461
0.012756542305638208
0.0157778286411841
0.017456321049820707
0.017120622568093383
0.016784924086366067
0.022156099794003202
0.02719157701991302
0.02719157701991302
0.023163195239185166
0.011413748378728923
-0.005706874189364461
-0.01376363775082017
-0.015106431677729458
-0.01376363775082017
-0.012420843823910887
-0.009735255970092317
-0.005706874189364461
0.0030212863355458916
0.003692683299000534
0.0006713969634546426
0.006378271152819104
0.012420843823910887
0.0157778286411841
0.017120622568093383
0.0157778286411841
0.017120622568093383
0.021820401312275882
0.027862973983367664
0.02719157701991302
0.022827496757457846
0.009735255970092317
-0.006713969634546426
-0.014435034714274816
-0.016449225604638743
-0.015106431677729458
-0.01376363775082017
-0.011749446860456245
-0.005706874189364461
0.0023498893720912484
0.003692683299000534
0.0010070954451819635
0.007049668116273747
0.013092240787365528
0.017120622568093383
0.01846341649500267
0.017120622568093383
0.017792019531548024
0.023834592202639806
0.029205767910276948
0.029205767910276948
0.023834592202639806
0.009063859006637675
-0.007721065079728388
-0.016449225604638743
-0.01846341649500267
-0.01913481345845731
-0.014435034714274816
-0.011749446860456245
-0.007049668116273747
0.0023498893720912484
0.003692683299000534
0.0016784924086366065
0.007385366598001068
0.015106431677729458
0.01846341649500267
0.019806210421911954
0.019806210421911954
0.019806210421911954
0.025177386129549097
0.03054856183718624
0.03054856183718624
0.023163195239185166
0.0010070954451819635
-0.016449225604638743
-0.022491798275730522
-0.024505989166094453
-0.023163195239185166
-0.019806210421911954
-0.0157778286411841
-0.008392462043183033
0.003692683299000534
0.014435034714274816
0.013092240787365528
0.017120622568093383
0.023163195239185166
0.026184481574731057
0.026184481574731057
0.02349889372091249
0.022491798275730522
0.027862973983367664
0.03390554665445944
0.03457694361791409
0.02719157701991302
0.006378271152819104
-0.012420843823910887
-0.01913481345845731
-0.021820401312275882
-0.020477607385366595
-0.0157778286411841
-0.012420843823910887
-0.005706874189364461
0.004364080262455177
0.003692683299000534
-0.0006713969634546426
0.0050354772259098195
0.01376363775082017
0.01812771801327535
0.021149004348821242
0.020477607385366595
0.019806210421911954
0.02652018005645838
0.033234149691004806
0.03424124513618677
0.027862973983367664
0.017792019531548024
-0.0003356984817273213
-0.013092240787365528
-0.017792019531548024
-0.017792019531548024
-0.016449225604638743
-0.01376363775082017
-0.008392462043183033
-0.005706874189364461
-0.009063859006637675
-0.010406652933546959
-0.0023498893720912484
0.007721065079728388
0.014435034714274816
0.017120622568093383
0.016449225604638743
0.017792019531548024
0.025177386129549097
0.033234149691004806
0.033234149691004806
0.027862973983367664
0.01812771801327535
0.0003356984817273213
-0.012085145342183566
-0.016784924086366067
-0.017792019531548024
-0.0157778286411841
-0.013092240787365528
-0.007049668116273747
-0.005706874189364461
-0.009063859006637675
-0.010070954451819639
-0.0016784924086366065
0.008728160524910353
0.014435034714274816
0.01812771801327535
0.017120622568093383
0.01846341649500267
0.02752727550164034
0.035919737544823374
0.035919737544823374
0.029205767910276948
0.020477607385366595
0.003692683299000534
-0.009735255970092317
-0.015106431677729458
-0.015442130159456776
-0.01376363775082017
-0.011749446860456245
-0.006378271152819104
-0.006378271152819104
-0.011078049897001601
-0.011078049897001601
-0.0016784924086366065
0.008728160524910353
0.014435034714274816
0.017120622568093383
0.017792019531548024
0.01913481345845731
0.027862973983367664
0.037262531471732654
0.037262531471732654
0.030884260318913552
0.021149004348821242
0.003692683299000534
-0.010070954451819639
-0.015106431677729458
-0.016449225604638743
-0.015106431677729458
-0.012420843823910887
-0.007721065079728388
-0.006378271152819104
-0.011078049897001601
-0.011749446860456245
-0.0016784924086366065
0.009063859006637675
0.015442130159456776
0.01846341649500267
0.01913481345845731
0.020477607385366595
0.02853437094682231
0.037262531471732654
0.03860532539864195
0.03189135576409552
0.020813305867093918
0.0006713969634546426
-0.01376363775082017
-0.01846341649500267
-0.01913481345845731
-0.016449225604638743
-0.01376363775082017
-0.007049668116273747
-0.003356984817273213
-0.007721065079728388
-0.008728160524910353
-0.0003356984817273213
0.011078049897001601
0.017120622568093383
0.020477607385366595
0.020813305867093918
0.021820401312275882
0.029877164873731592
0.03860532539864195
0.03961242084382391
0.033234149691004806
0.01846341649500267
-0.004028381780727854
-0.017792019531548024
-0.021820401312275882
-0.021149004348821242
-0.01846341649500267
-0.015442130159456776
-0.007721065079728388
-0.0010070954451819635
-0.005706874189364461
-0.007721065079728388
0.0023498893720912484
0.014099336232547494
0.01913481345845731
0.021149004348821242
0.021820401312275882
0.02349889372091249
0.03189135576409552
0.03994811932555123
0.03994811932555123
0.03457694361791409
0.019470511940184634
-0.004364080262455177
-0.017792019531548024
-0.020477607385366595
-0.020813305867093918
-0.01913481345845731
-0.015106431677729458
-0.007385366598001068
-0.004364080262455177
-0.009063859006637675
-0.009735255970092317
-0.0003356984817273213
0.012085145342183566
0.017792019531548024
0.020813305867093918
0.020477607385366595
0.022491798275730522
0.03054856183718624
0.03860532539864195
0.03860532539864195
0.03189135576409552
0.021149004348821242
0.007721065079728388
-0.004364080262455177
-0.009735255970092317
-0.011078049897001601
-0.011078049897001601
-0.009735255970092317
-0.012420843823910887
-0.017792019531548024
-0.019806210421911954
-0.019470511940184634
-0.008392462043183033
0.003692683299000534
0.010406652933546959
0.01376363775082017
0.015106431677729458
0.017120622568093383
0.02652018005645838
0.03558403906309605
0.035919737544823374
0.029877164873731592
0.019470511940184634
0.009063859006637675
0.0010070954451819635
-0.0030212863355458916
-0.004364080262455177
-0.005706874189364461
-0.008392462043183033
-0.015106431677729458
-0.01913481345845731
-0.019806210421911954
-0.019806210421911954
-0.008392462043183033
0.0030212863355458916
0.009735255970092317
0.013092240787365528
0.014435034714274816
0.017120622568093383
0.02584878309300374
0.033234149691004806
0.03424124513618677
0.029205767910276948
0.019806210421911954
0.009063859006637675
0.0023498893720912484
-0.0010070954451819635
-0.0030212863355458916
-0.004364080262455177
-0.007049668116273747
-0.01376363775082017
-0.017792019531548024
-0.01913481345845731
-0.01846341649500267
-0.008392462043183033
0.003692683299000534
0.010406652933546959
0.013092240787365528
0.015442130159456776
0.017120622568093383
0.02584878309300374
0.03390554665445944
0.03424124513618677
0.029205767910276948
0.019806210421911954
0.009399557488364994
0.003692683299000534
-0.0003356984817273213
-0.0016784924086366065
-0.0016784924086366065
-0.0050354772259098195
-0.011078049897001601
-0.014435034714274816
-0.015106431677729458
-0.015106431677729458
-0.005706874189364461
0.0050354772259098195
0.010406652933546959
0.013092240787365528
0.014435034714274816
0.016449225604638743
0.023834592202639806
0.029877164873731592
0.029877164873731592
0.023834592202639806
0.017120622568093383
0.009063859006637675
0.0023498893720912484
0.0003356984817273213
-0.0016784924086366065
-0.0016784924086366065
-0.004364080262455177
-0.009063859006637675
-0.011078049897001601
-0.011749446860456245
-0.011078049897001601
-0.003692683299000534
0.0050354772259098195
0.009063859006637675
0.011078049897001601
0.011749446860456245
0.013092240787365528
0.01846341649500267
0.023834592202639806
0.023834592202639806
0.019470511940184634
0.014099336232547494
0.007385366598001068
0.0023498893720912484
0.0010070954451819635
-0.0010070954451819635
-0.006378271152819104
-0.011413748378728923
-0.014435034714274816
-0.013092240787365528
-0.007721065079728388
-0.0010070954451819635
0.0050354772259098195
0.010406652933546959
0.014099336232547494
0.012756542305638208
0.009063859006637675
0.005706874189364461
0.003692683299000534
-0.0010070954451819635
-0.010070954451819639
-0.019806210421911954
0.10070954451819639
5.766964217593651
10.960891126878767
10.97297627222095
10.97431906614786
10.97431906614786
10.97431906614786
10.97431906614786
2.5576867322804606
-10.948134584573127
-10.985397116044862
-10.987747005416953
-10.988418402380407
-10.988418402380407
-10.988754100862135
-10.988754100862135
-10.661783779659725
-8.997390707255665
-7.465598535133897
-6.074128328374151
-1.600946059357595
9.712092774853131
10.971633478294041
10.97431906614786
10.97431906614786
10.97431906614786
10.97431906614786
10.382146944380864
1.2417486839093612
-10.07196154726482
-10.984725719081407
-10.987411306935224
-10.988418402380407
-10.988754100862135
-10.98908979934386
-10.9441062027924
-8.907087815671014
-7.080216678110934
-5.431937132829785
-3.958220798046845
-2.648325322346837
-1.4834515907530326
0.043305104142824444
5.111680781261921
9.369680323491263
9.992736705577173
9.110521095597772
7.59182116426337
5.0935530632486445
0.32394903486686505
-2.539223315785458
-1.531792172121767
-0.724101625085832
-0.15878538185702296
0.4313725490196079
0.9147783627069506
1.3276874952315556
1.6805065995269703
1.9722285801480124
2.212252994583047
2.4019226367589837
2.5469443808651864
2.65302510109102
2.725200274662394
2.768505378805218
2.7846189059281303
2.777904936293584
2.7517204547188525
2.706736858167391
2.6476539253833824
2.5738002594033724
2.490547035934996
2.4005798428320744
2.3038986800946057
2.2025177386129546
2.095094224460212
1.9839780270084688
1.8708476386663613
1.7573815518425269
1.6452582589456015
1.5351491569390403
1.4257114518959333
1.3192950331883724
1.2162355992980851
1.1182116426337072
1.0269016556038757
0.9409628442816814
0.8610666056305791
0.7865415426871137
0.7173876554512856
0.6532692454413671
0.5938506141756313
0.5408102540627145
0.4921339742122529
0.4481574731059739
0.40988784618905927
0.37296101319905395
0.3380483710994125
0.30582131685358965
0.2762798504615854
0.250766765850309
0.22760357061112382
0.2051117723353933
0.18463416495002669
0.16617074845502405
0.15072861829556725
0.138979171435111
0.129579613946746
0.12219424734874496
0.11715877012283514
0.11413748378728925
0.11111619745174332
0.11111619745174332
0.11078049897001603
0.11245899137865262
0.11514457923247119
0.11783016708628975
0.11950865949492637
0.11917296101319905
0.12118715190356297
0.12118715190356297
0.12118715190356297
0.12051575494010834
0.12018005645838101
0.11883726253147174
0.11581597619592585
0.11480888075074386
0.11380178530556191
0.11581597619592585
0.11715877012283514
0.11850156404974439
0.12018005645838101
0.12185854886701762
0.1232013427939269
0.12521553368429084
0.1279011215381094
0.13058670939192796
0.13394369420920116
0.13394369420920116
0.13360799572747387
0.1326009002822919
0.13058670939192796
0.12857251850156404
0.12655832761120012
0.12387273975738157
0.12051575494010834
0.11648737315938049
0.11245899137865262
0.10977340352483406
0.10843060959792476
0.10708781567101548
0.10641641870756083
0.1057450217441062
0.1057450217441062
0.1057450217441062
0.10641641870756083
0.10641641870756083
0.10708781567101548
0.10775921263447012
0.10641641870756083
0.10440222781719691
0.10305943389028763
0.10138094148165101
0.10003814755474173
0.0963454642557412
0.09298847943846798
0.08896009765774013
0.08560311284046693
0.08157473105973906
0.0788891432059205
0.07821774624246586
0.0775463492790112
0.07620355535210192
0.07553215838864728
0.07486076142519264
0.07486076142519264
0.07553215838864728
0.07620355535210192
0.07687495231555656
0.0775463492790112
0.0775463492790112
0.07620355535210192
0.07486076142519264
0.07351796749828336
0.07083237964446479
0.0694895857175555
0.06680399786373693
0.06344701304646372
0.060090028229190504
0.05740444037537193
0.056061646448462656
0.05471885252155337
0.05471885252155337
0.054047455558098714
0.054047455558098714
0.05337605859464408
0.05471885252155337
0.055390249485008015
0.056061646448462656
0.05740444037537193
0.05874723430228122
0.05874723430228122
0.05740444037537193
0.056061646448462656
0.056061646448462656
0.054047455558098714
0.0520332646677348
0.049347676813916226
0.04766918440527961
0.043976501106279084
0.042298008697642483
0.03994811932555123
0.03927672236209659
0.03994811932555123
0.03927672236209659
0.03994811932555123
0.03994811932555123
0.03994811932555123
0.04129091325246051
0.042298008697642483
0.043640802624551764
0.044647898069733724
0.044647898069733724
0.043976501106279084
0.0426337071793698
0.042298008697642483
0.04061951628900587
0.03994811932555123
0.037262531471732654
0.03457694361791409
0.032898451209277486
0.0315556572823682
0.029205767910276948
0.02887006942854963
0.029205767910276948
0.029205767910276948
0.029205767910276948
0.029205767910276948
0.03054856183718624
0.0315556572823682
0.03189135576409552
0.03390554665445944
0.035248340581368734
0.035919737544823374
0.03457694361791409
0.03390554665445944
0.03256275272755016
0.03189135576409552
0.03121995880064088
0.02887006942854963
0.02652018005645838
0.023834592202639806
0.022491798275730522
0.021149004348821242
0.021149004348821242
0.021149004348821242
0.021820401312275882
0.021149004348821242
0.021820401312275882
0.023163195239185166
0.023834592202639806
0.025177386129549097
0.02652018005645838
0.02853437094682231
0.02887006942854963
0.02853437094682231
0.027862973983367664
0.02719157701991302
0.02584878309300374
0.025177386129549097
0.023163195239185166
0.019806210421911954
0.017792019531548024
0.0157778286411841
0.0157778286411841
0.015442130159456776
0.0157778286411841
0.0157778286411841
0.016449225604638743
0.017120622568093383
0.01846341649500267
0.019806210421911954
0.021149004348821242
0.022156099794003202
0.023834592202639806
0.024505989166094453
0.023834592202639806
0.023834592202639806
0.022491798275730522
0.022491798275730522
0.020477607385366595
0.01846341649500267
0.016449225604638743
0.014435034714274816
0.012420843823910887
0.011749446860456245
0.010406652933546959
0.011413748378728923
0.011749446860456245
0.012420843823910887
0.012420843823910887
0.013092240787365528
0.0157778286411841
0.017120622568093383
0.017120622568093383
0.019806210421911954
0.019806210421911954
0.020477607385366595
0.019806210421911954
0.01846341649500267
0.01846341649500267
0.017792019531548024
0.0157778286411841
0.013092240787365528
0.011413748378728923
0.009735255970092317
0.008728160524910353
0.007721065079728388
0.009063859006637675
0.009735255970092317
0.010070954451819639
0.011078049897001601
0.011413748378728923
0.013092240787365528
0.014435034714274816
0.0157778286411841
0.01846341649500267
0.01846341649500267
0.01846341649500267
0.01846341649500267
0.017120622568093383
0.016449225604638743
0.0157778286411841
0.01376363775082017
0.011078049897001601
0.009063859006637675
0.007385366598001068
0.006378271152819104
0.005706874189364461
0.006042572671091783
0.007049668116273747
0.007721065079728388
0.008392462043183033
0.009735255970092317
0.011749446860456245
0.012420843823910887
0.014435034714274816
0.016449225604638743
0.016449225604638743
0.016449225604638743
0.0157778286411841
0.0157778286411841
0.014435034714274816
0.013092240787365528
0.011749446860456245
0.009063859006637675
0.007049668116273747
0.0050354772259098195
0.003692683299000534
0.003692683299000534
0.0050354772259098195
0.0050354772259098195
0.006042572671091783
0.006713969634546426
0.007721065079728388
0.009735255970092317
0.011749446860456245
0.014435034714274816
0.0157778286411841
0.017120622568093383
0.017120622568093383
0.016449225604638743
0.015106431677729458
0.014435034714274816
0.013092240787365528
0.011078049897001601
0.007721065079728388
0.0050354772259098195
0.004364080262455177
0.0023498893720912484
0.0023498893720912484
0.0030212863355458916
0.003692683299000534
0.0050354772259098195
0.006378271152819104
0.007049668116273747
0.008392462043183033
0.011078049897001601
0.013092240787365528
0.0157778286411841
0.016784924086366067
0.0157778286411841
0.0157778286411841
0.014435034714274816
0.013092240787365528
0.012420843823910887
0.010070954451819639
0.006378271152819104
0.004364080262455177
0.002014190890363927
0.0010070954451819635
0.0010070954451819635
0.0010070954451819635
0.0023498893720912484
0.0030212863355458916
0.0050354772259098195
0.006378271152819104
0.009063859006637675
0.011413748378728923
0.014099336232547494
0.0157778286411841
0.017120622568093383
0.016449225604638743
0.016449225604638743
0.014435034714274816
0.013092240787365528
0.011749446860456245
0.010406652933546959
0.006378271152819104
0.0023498893720912484
0.0003356984817273213
-0.0003356984817273213
-0.0003356984817273213
0.0003356984817273213
0.0010070954451819635
0.0023498893720912484
0.0030212863355458916
0.004364080262455177
0.007721065079728388
0.010406652933546959
0.013092240787365528
0.0157778286411841
0.016449225604638743
0.017120622568093383
0.0157778286411841
0.014770733196002136
0.013092240787365528
0.011749446860456245
0.010070954451819639
0.006378271152819104
0.0023498893720912484
-0.0003356984817273213
-0.0010070954451819635
-0.0010070954451819635
-0.0003356984817273213
0.0003356984817273213
0.0010070954451819635
0.003356984817273213
0.004364080262455177
0.007049668116273747
0.009735255970092317
0.01376363775082017
0.0157778286411841
0.017792019531548024
0.016449225604638743
0.0157778286411841
0.014099336232547494
0.013092240787365528
0.011749446860456245
0.009063859006637675
0.0050354772259098195
0.0006713969634546426
-0.0010070954451819635
-0.0023498893720912484
-0.0023498893720912484
-0.0016784924086366065
-0.0003356984817273213
-0.0003356984817273213
0.0016784924086366065
0.003692683299000534
0.007049668116273747
0.010406652933546959
0.013092240787365528
0.0157778286411841
0.016449225604638743
0.017120622568093383
0.016449225604638743
0.015442130159456776
0.01376363775082017
0.011078049897001601
0.009063859006637675
0.0050354772259098195
0.0010070954451819635
-0.0010070954451819635
-0.0030212863355458916
-0.0030212863355458916
-0.0016784924086366065
-0.0010070954451819635
0.0010070954451819635
0.0023498893720912484
0.004699778744182497
0.005706874189364461
0.009063859006637675
0.013092240787365528
0.0157778286411841
0.016784924086366067
0.017120622568093383
0.0157778286411841
0.014435034714274816
0.013092240787365528
0.011749446860456245
0.008728160524910353
0.0050354772259098195
0.0016784924086366065
-0.0016784924086366065
-0.003356984817273213
-0.0030212863355458916
-0.0016784924086366065
-0.0010070954451819635
0.0010070954451819635
0.0016784924086366065
0.003692683299000534
0.006042572671091783
0.009735255970092317
0.013092240787365528
0.0157778286411841
0.016449225604638743
0.0157778286411841
0.014435034714274816
0.01376363775082017
0.012420843823910887
0.011413748378728923
0.007721065079728388
0.004364080262455177
0.0010070954451819635
-0.0016784924086366065
-0.0030212863355458916
-0.0016784924086366065
-0.0003356984817273213
0.0003356984817273213
0.0010070954451819635
0.0023498893720912484
0.004364080262455177
0.007049668116273747
0.009063859006637675
0.012420843823910887
0.015106431677729458
0.016784924086366067
0.0157778286411841
0.014435034714274816
0.014099336232547494
0.013092240787365528
0.010406652933546959
0.007721065079728388
0.0050354772259098195
0.002014190890363927
-0.0003356984817273213
-0.0016784924086366065
-0.0016784924086366065
-0.0006713969634546426
-0.0003356984817273213
0.0010070954451819635
0.0023498893720912484
0.003692683299000534
0.006378271152819104
0.009735255970092317
0.012420843823910887
0.014435034714274816
0.015442130159456776
0.015106431677729458
0.01376363775082017
0.012420843823910887
0.012420843823910887
0.010406652933546959
0.007721065079728388
0.003692683299000534
0.0010070954451819635
-0.0003356984817273213
-0.0010070954451819635
-0.0016784924086366065
-0.0003356984817273213
0.0010070954451819635
0.0016784924086366065
0.0023498893720912484
0.004699778744182497
0.007049668116273747
0.009063859006637675
0.011749446860456245
0.014435034714274816
0.014435034714274816
0.014435034714274816
0.013092240787365528
0.012420843823910887
0.011749446860456245
0.009735255970092317
0.007049668116273747
0.003692683299000534
0.0010070954451819635
-0.0003356984817273213
-0.0016784924086366065
-0.0010070954451819635
-0.0003356984817273213
0.0003356984817273213
0.0010070954451819635
0.0023498893720912484
0.0050354772259098195
0.006378271152819104
0.009063859006637675
0.011078049897001601
0.013092240787365528
0.014435034714274816
0.013092240787365528
0.012420843823910887
0.011413748378728923
0.010406652933546959
0.010070954451819639
0.006378271152819104
0.004364080262455177
0.002014190890363927
-0.0003356984817273213
-0.0010070954451819635
-0.0006713969634546426
-0.0003356984817273213
0.0010070954451819635
0.0016784924086366065
0.0023498893720912484
0.0050354772259098195
0.007049668116273747
0.009063859006637675
0.011413748378728923
0.012420843823910887
0.013092240787365528
0.013092240787365528
0.012420843823910887
0.011078049897001601
0.010406652933546959
0.009063859006637675
0.007721065079728388
0.0050354772259098195
0.0023498893720912484
0.0010070954451819635
-0.0003356984817273213
-0.0003356984817273213
0.0003356984817273213
0.0013427939269092851
0.0013427939269092851
0.0023498893720912484
0.003692683299000534
0.006378271152819104
0.007721065079728388
0.010406652933546959
0.011078049897001601
0.011749446860456245
0.011749446860456245
0.011078049897001601
0.010406652933546959
0.009735255970092317
0.007721065079728388
0.006378271152819104
0.004364080262455177
0.0023498893720912484
0.0006713969634546426
0.0003356984817273213
0.0003356984817273213
0.0006713969634546426
0.0023498893720912484
0.0023498893720912484
0.003692683299000534
0.0050354772259098195
0.007385366598001068
0.008728160524910353
0.010406652933546959
0.011749446860456245
0.012420843823910887
0.012420843823910887
0.011078049897001601
0.011078049897001601
0.010406652933546959
0.009399557488364994
0.006378271152819104
0.004699778744182497
0.0023498893720912484
0.0010070954451819635
0.0010070954451819635
0.0010070954451819635
0.0023498893720912484
0.0023498893720912484
0.0030212863355458916
0.003692683299000534
0.0050354772259098195
0.007385366598001068
0.009063859006637675
0.009735255970092317
0.011078049897001601
0.011749446860456245
0.011078049897001601
0.010406652933546959
0.010406652933546959
0.009063859006637675
0.008392462043183033
0.007385366598001068
0.004364080262455177
0.0030212863355458916
0.0023498893720912484
0.0013427939269092851
0.002014190890363927
0.0023498893720912484
0.0030212863355458916
0.004364080262455177
0.003692683299000534
0.0050354772259098195
0.007049668116273747
0.007721065079728388
0.009063859006637675
0.010406652933546959
0.010406652933546959
0.010406652933546959
0.010406652933546959
0.009063859006637675
0.008728160524910353
0.007721065079728388
0.006378271152819104
0.003692683299000534
0.0023498893720912484
0.0016784924086366065
0.0013427939269092851
0.0010070954451819635
0.0016784924086366065
0.0030212863355458916
0.003356984817273213
0.003692683299000534
0.0050354772259098195
0.006378271152819104
0.007385366598001068
0.009735255970092317
0.010406652933546959
0.010406652933546959
0.010406652933546959
0.010406652933546959
0.009735255970092317
0.008392462043183033
0.007721065079728388
0.007049668116273747
0.004364080262455177
0.003692683299000534
0.0030212863355458916
0.0023498893720912484
0.0023498893720912484
0.0023498893720912484
0.0030212863355458916
0.003692683299000534
0.0050354772259098195
0.006378271152819104
0.006378271152819104
0.007721065079728388
0.009735255970092317
0.010406652933546959
0.011078049897001601
0.011078049897001601
0.010406652933546959
0.010406652933546959
0.009735255970092317
0.008728160524910353
0.007049668116273747
0.0050354772259098195
0.003356984817273213
0.0023498893720912484
0.0023498893720912484
0.0023498893720912484
0.0023498893720912484
0.0023498893720912484
0.003692683299000534
0.004699778744182497
0.005706874189364461
0.007049668116273747
0.007721065079728388
0.009735255970092317
0.010406652933546959
0.010406652933546959
0.010406652933546959
0.010070954451819639
0.009063859006637675
0.008392462043183033
0.007721065079728388
0.006378271152819104
0.0050354772259098195
0.003692683299000534
0.0023498893720912484
0.0023498893720912484
0.0030212863355458916
0.0030212863355458916
0.003692683299000534
0.004364080262455177
0.0050354772259098195
0.005706874189364461
0.006378271152819104
0.007721065079728388
0.008728160524910353
0.009063859006637675
0.010070954451819639
0.009735255970092317
0.009735255970092317
0.009063859006637675
0.007721065079728388
0.007049668116273747
0.006378271152819104
0.0050354772259098195
0.003692683299000534
0.0023498893720912484
0.0023498893720912484
0.0023498893720912484
0.0023498893720912484
0.003356984817273213
0.004699778744182497
0.0050354772259098195
0.0050354772259098195
0.006378271152819104
0.007721065079728388
0.009063859006637675
0.010070954451819639
0.009063859006637675
0.009735255970092317
0.010070954451819639
0.009063859006637675
0.007721065079728388
0.007721065079728388
0.006378271152819104
0.0050354772259098195
0.003692683299000534
0.0023498893720912484
0.0023498893720912484
0.0023498893720912484
0.0023498893720912484
0.003692683299000534
0.003692683299000534
0.004699778744182497
0.0050354772259098195
0.006042572671091783
0.007049668116273747
0.008392462043183033
0.009063859006637675
0.008728160524910353
0.009063859006637675
0.009063859006637675
0.008728160524910353
0.007721065079728388
0.007049668116273747
0.006378271152819104
0.0050354772259098195
0.003692683299000534
0.0023498893720912484
0.0023498893720912484
0.003692683299000534
0.003692683299000534
0.004699778744182497
0.004364080262455177
0.0050354772259098195
0.006378271152819104
0.006378271152819104
0.007721065079728388
0.009063859006637675
0.010406652933546959
0.009735255970092317
0.009735255970092317
0.009399557488364994
0.009063859006637675
0.008392462043183033
0.007721065079728388
0.006378271152819104
0.006042572671091783
0.004364080262455177
0.003692683299000534
0.003692683299000534
0.0030212863355458916
0.003692683299000534
0.0050354772259098195
0.004699778744182497
0.0050354772259098195
0.0050354772259098195
0.006713969634546426
0.007721065079728388
0.009063859006637675
0.009399557488364994
0.009735255970092317
0.009735255970092317
0.009063859006637675
0.008728160524910353
0.008728160524910353
0.007049668116273747
0.006378271152819104
0.0050354772259098195
0.004364080262455177
0.0023498893720912484
0.0030212863355458916
0.0023498893720912484
0.003692683299000534
0.003692683299000534
0.003692683299000534
0.0050354772259098195
0.0050354772259098195
0.0050354772259098195
0.006378271152819104
0.007721065079728388
0.009063859006637675
0.009063859006637675
0.009063859006637675
0.007721065079728388
0.007721065079728388
0.007721065079728388
0.007049668116273747
0.006378271152819104
0.0050354772259098195
0.003692683299000534
0.0023498893720912484
0.003692683299000534
0.003692683299000534
0.003692683299000534
0.003692683299000534
0.004364080262455177
0.004364080262455177
0.005706874189364461
0.006378271152819104
0.006378271152819104
0.007721065079728388
0.009063859006637675
0.010406652933546959
0.009063859006637675
0.009063859006637675
0.009399557488364994
0.008728160524910353
0.007721065079728388
0.006378271152819104
0.005706874189364461
0.0050354772259098195
0.003356984817273213
0.0030212863355458916
0.0030212863355458916
0.0030212863355458916
0.003692683299000534
0.004364080262455177
0.0050354772259098195
0.0050354772259098195
0.006378271152819104
0.006378271152819104
0.007721065079728388
0.009063859006637675
0.009735255970092317
0.009063859006637675
0.009063859006637675
0.007721065079728388
0.007385366598001068
0.007049668116273747
0.005706874189364461
0.0050354772259098195
0.004364080262455177
0.003692683299000534
0.0023498893720912484
0.003692683299000534
0.003692683299000534
0.003692683299000534
0.003692683299000534
0.0050354772259098195
0.005706874189364461
0.006378271152819104
0.007721065079728388
0.008728160524910353
0.009063859006637675
0.009063859006637675
0.009063859006637675
0.008392462043183033
0.007721065079728388
0.007721065079728388
0.007721065079728388
0.006042572671091783
0.0050354772259098195
0.0050354772259098195
0.003692683299000534
0.0030212863355458916
0.0023498893720912484
0.003692683299000534
0.004364080262455177
0.004364080262455177
0.004699778744182497
0.005706874189364461
0.006378271152819104
0.007385366598001068
0.007721065079728388
0.009063859006637675
0.009063859006637675
0.009063859006637675
0.009063859006637675
0.009063859006637675
0.009063859006637675
0.007721065079728388
0.006042572671091783
0.004364080262455177
0.003692683299000534
0.0030212863355458916
0.0023498893720912484
0.0023498893720912484
0.003692683299000534
0.003692683299000534
0.004364080262455177
0.0050354772259098195
0.0050354772259098195
0.006378271152819104
0.007721065079728388
0.007721065079728388
0.008392462043183033
0.009063859006637675
0.009063859006637675
0.007721065079728388
0.007721065079728388
0.007385366598001068
0.006378271152819104
0.0050354772259098195
0.004028381780727854
0.003692683299000534
0.003356984817273213
0.0023498893720912484
0.0023498893720912484
0.0023498893720912484
0.003692683299000534
0.004364080262455177
0.003692683299000534
0.0050354772259098195
0.006378271152819104
0.007721065079728388
0.009063859006637675
0.008728160524910353
0.009399557488364994
0.009063859006637675
0.009063859006637675
0.009063859006637675
0.008392462043183033
0.007721065079728388
0.006378271152819104
0.0050354772259098195
0.0050354772259098195
0.003692683299000534
0.003692683299000534
0.003692683299000534
0.003692683299000534
0.0050354772259098195
0.0050354772259098195
0.0050354772259098195
0.005706874189364461
0.006378271152819104
0.007721065079728388
0.008392462043183033
0.009063859006637675
0.009735255970092317
0.009735255970092317
0.009063859006637675
0.008728160524910353
0.007721065079728388
0.007385366598001068
0.006378271152819104
0.004699778744182497
0.003692683299000534
0.0023498893720912484
0.003356984817273213
0.003692683299000534
0.004364080262455177
0.0050354772259098195
0.004364080262455177
0.0050354772259098195
0.005706874189364461
0.006378271152819104
0.007049668116273747
0.008392462043183033
0.009735255970092317
0.009063859006637675
0.009063859006637675
0.008728160524910353
0.009063859006637675
0.007721065079728388
0.007721065079728388
0.006378271152819104
0.0050354772259098195
0.004364080262455177
0.003692683299000534
0.003356984817273213
0.0030212863355458916
0.004364080262455177
0.004364080262455177
0.004364080262455177
0.0050354772259098195
0.0050354772259098195
0.007049668116273747
0.007721065079728388
0.009063859006637675
0.008392462043183033
0.009063859006637675
0.009063859006637675
0.008392462043183033
0.007721065079728388
0.007721065079728388
0.007049668116273747
0.006378271152819104
0.004699778744182497
0.003692683299000534
0.003692683299000534
0.003692683299000534
0.003692683299000534
0.003692683299000534
0.003692683299000534
0.0050354772259098195
0.005706874189364461
0.006378271152819104
0.007385366598001068
0.007721065079728388
0.009063859006637675
0.009063859006637675
0.008728160524910353
0.009063859006637675
0.009063859006637675
0.007721065079728388
0.007721065079728388
0.007385366598001068
0.006378271152819104
0.004364080262455177
0.0050354772259098195
0.003356984817273213
0.0023498893720912484
0.003356984817273213
0.003692683299000534
0.003692683299000534
0.0050354772259098195
0.0050354772259098195
0.0050354772259098195
0.0050354772259098195
0.007049668116273747
0.007721065079728388
0.008728160524910353
0.009063859006637675
0.009063859006637675
0.009735255970092317
0.008392462043183033
0.007721065079728388
0.006378271152819104
0.005706874189364461
0.0050354772259098195
0.003692683299000534
0.0030212863355458916
0.0030212863355458916
0.0030212863355458916
0.0030212863355458916
0.003692683299000534
0.003692683299000534
0.0050354772259098195
0.0050354772259098195
0.006378271152819104
0.007721065079728388
0.008392462043183033
0.008392462043183033
0.007721065079728388
0.008728160524910353
0.008392462043183033
0.007721065079728388
0.007721065079728388
0.007721065079728388
0.006378271152819104
0.0050354772259098195
0.003692683299000534
0.004364080262455177
0.004364080262455177
0.004364080262455177
0.004364080262455177
0.004364080262455177
0.0050354772259098195
0.0050354772259098195
0.006042572671091783
0.006378271152819104
0.007721065079728388
0.009063859006637675
0.009063859006637675
0.008728160524910353
0.009063859006637675
0.008392462043183033
0.007721065079728388
0.007721065079728388
0.006378271152819104
0.006378271152819104
0.004699778744182497
0.003692683299000534
0.0023498893720912484
0.003692683299000534
0.003692683299000534
0.003692683299000534
0.003692683299000534
0.004364080262455177
0.0050354772259098195
0.005706874189364461
0.006378271152819104
0.007721065079728388
0.008392462043183033
0.007721065079728388
0.008728160524910353
0.009063859006637675
0.008392462043183033
0.008728160524910353
0.007721065079728388
0.007049668116273747
0.005706874189364461
0.0050354772259098195
0.003692683299000534
0.0023498893720912484
0.003692683299000534
0.004028381780727854
0.004364080262455177
0.0050354772259098195
0.004364080262455177
0.0050354772259098195
0.006042572671091783
0.006378271152819104
0.007721065079728388
0.007721065079728388
0.008392462043183033
0.009063859006637675
0.008728160524910353
0.007721065079728388
0.007721065079728388
0.007049668116273747
0.006378271152819104
0.006378271152819104
0.0050354772259098195
0.003692683299000534
0.003692683299000534
0.0023498893720912484
0.003692683299000534
0.003692683299000534
0.003692683299000534
0.004699778744182497
0.0050354772259098195
0.005706874189364461
0.006378271152819104
0.007049668116273747
0.007721065079728388
0.009063859006637675
0.009063859006637675
0.008392462043183033
0.008392462043183033
0.008392462043183033
0.007721065079728388
0.007049668116273747
0.006378271152819104
0.0050354772259098195
0.0050354772259098195
0.003692683299000534
0.003692683299000534
0.004364080262455177
0.004364080262455177
0.0050354772259098195
0.0050354772259098195
0.0050354772259098195
0.005706874189364461
0.007049668116273747
0.007049668116273747
0.007721065079728388
0.009063859006637675
0.009063859006637675
0.009063859006637675
0.009063859006637675
0.007721065079728388
0.007721065079728388
0.006378271152819104
0.005706874189364461
0.0050354772259098195
0.003692683299000534
0.004364080262455177
0.004364080262455177
0.003692683299000534
0.0050354772259098195
0.004364080262455177
0.0050354772259098195
0.0050354772259098195
0.006378271152819104
0.006713969634546426
0.007721065079728388
0.009063859006637675
0.009063859006637675
0.009735255970092317
0.008392462043183033
0.007721065079728388
0.007721065079728388
0.007721065079728388
0.007049668116273747
0.0050354772259098195
0.0050354772259098195
0.004364080262455177
0.004364080262455177
0.003692683299000534
0.003692683299000534
0.003692683299000534
0.003692683299000534
0.003692683299000534
0.004364080262455177
0.006378271152819104
0.007049668116273747
0.007049668116273747
0.007721065079728388
0.009063859006637675
0.009063859006637675
0.009063859006637675
0.009063859006637675
0.008392462043183033
0.007721065079728388
0.007049668116273747
0.006378271152819104
0.0050354772259098195
0.004699778744182497
0.003356984817273213
0.0023498893720912484
0.003356984817273213
0.003692683299000534
0.004699778744182497
0.004364080262455177
0.0050354772259098195
0.005706874189364461
0.007385366598001068
0.007049668116273747
0.007721065079728388
0.008392462043183033
0.009063859006637675
0.009063859006637675
0.008392462043183033
0.008392462043183033
0.007721065079728388
0.007049668116273747
0.006378271152819104
0.0050354772259098195
0.004699778744182497
0.003692683299000534
0.003692683299000534
0.0030212863355458916
0.003692683299000534
0.003692683299000534
0.003692683299000534
0.0050354772259098195
0.005706874189364461
0.006378271152819104
0.007385366598001068
0.007721065079728388
0.009063859006637675
0.008728160524910353
0.009063859006637675
0.009063859006637675
0.008392462043183033
0.007721065079728388
0.007721065079728388
0.006378271152819104
0.0050354772259098195
0.0050354772259098195
0.003692683299000534
0.003692683299000534
0.0023498893720912484
0.003692683299000534
0.003692683299000534
0.004364080262455177
0.004699778744182497
0.0050354772259098195
0.006378271152819104
0.007049668116273747
0.007049668116273747
0.008728160524910353
0.009063859006637675
0.008392462043183033
0.007721065079728388
0.007721065079728388
0.007721065079728388
0.007721065079728388
0.006378271152819104
0.0050354772259098195
0.004028381780727854
0.004364080262455177
0.003692683299000534
0.003692683299000534
0.004364080262455177
0.004364080262455177
0.0050354772259098195
0.0050354772259098195
0.006042572671091783
0.007385366598001068
0.007385366598001068
0.007721065079728388
0.009063859006637675
0.008728160524910353
0.009399557488364994
0.008392462043183033
0.007721065079728388
0.008728160524910353
0.008392462043183033
0.006378271152819104
0.005706874189364461
0.0050354772259098195
0.004699778744182497
0.004364080262455177
0.004699778744182497
0.004364080262455177
0.0050354772259098195
0.0050354772259098195
0.0050354772259098195
0.005706874189364461
0.006378271152819104
0.007385366598001068
0.007721065079728388
0.008392462043183033
0.007721065079728388
0.008728160524910353
0.007721065079728388
0.007721065079728388
0.007721065079728388
0.007385366598001068
0.006378271152819104
0.005706874189364461
0.004699778744182497
0.004364080262455177
0.003692683299000534
0.004364080262455177
0.003692683299000534
0.004699778744182497
0.004699778744182497
0.0050354772259098195
0.005706874189364461
0.006378271152819104
0.007049668116273747
0.007721065079728388
0.007721065079728388
0.009063859006637675
0.008728160524910353
0.009063859006637675
0.008392462043183033
0.007721065079728388
0.007721065079728388
0.007049668116273747
0.006042572671091783
0.0050354772259098195
0.0050354772259098195
0.0050354772259098195
0.0050354772259098195
0.0050354772259098195
0.0050354772259098195
0.0050354772259098195
0.0050354772259098195
0.005706874189364461
0.005706874189364461
0.007049668116273747
0.009063859006637675
0.008392462043183033
0.009063859006637675
0.008728160524910353
0.007721065079728388
0.007721065079728388
0.007721065079728388
0.007721065079728388
0.006378271152819104
0.0050354772259098195
0.0050354772259098195
0.0050354772259098195
0.0050354772259098195
0.004364080262455177
0.0050354772259098195
0.0050354772259098195
0.005706874189364461
0.006042572671091783
0.005706874189364461
0.006378271152819104
0.007385366598001068
0.007049668116273747
0.008728160524910353
0.007721065079728388
0.007721065079728388
0.007721065079728388
0.007721065079728388
0.007721065079728388
0.008056763561455708
0.006378271152819104
0.0050354772259098195
0.0050354772259098195
0.003692683299000534
0.003692683299000534
0.004364080262455177
0.004364080262455177
0.004364080262455177
0.005706874189364461
0.005706874189364461
0.0050354772259098195
0.005706874189364461
0.007049668116273747
0.007721065079728388
0.008728160524910353
0.007721065079728388
0.007721065079728388
0.007721065079728388
0.007721065079728388
0.007049668116273747
0.007049668116273747
0.006378271152819104
0.0050354772259098195
0.004364080262455177
0.004028381780727854
0.003692683299000534
0.003692683299000534
0.003692683299000534
0.003692683299000534
0.004364080262455177
0.0050354772259098195
0.005706874189364461
0.0050354772259098195
0.006378271152819104
0.007721065079728388
0.007721065079728388
0.008392462043183033
0.007721065079728388
0.007721065079728388
0.007721065079728388
0.007385366598001068
0.006378271152819104
0.006378271152819104
0.0050354772259098195
0.0050354772259098195
0.003692683299000534
0.003692683299000534
0.003692683299000534
0.003692683299000534
0.003692683299000534
0.0050354772259098195
0.005706874189364461
0.0050354772259098195
0.006378271152819104
0.007049668116273747
0.007721065079728388
0.009399557488364994
0.009063859006637675
0.008728160524910353
0.008392462043183033
0.007721065079728388
0.007721065079728388
0.007049668116273747
0.007049668116273747
0.006042572671091783
0.0050354772259098195
0.004699778744182497
0.0050354772259098195
0.0050354772259098195
0.004364080262455177
0.0050354772259098195
0.0050354772259098195
0.005706874189364461
0.005706874189364461
0.006378271152819104
0.007049668116273747
0.007721065079728388
0.009063859006637675
0.009063859006637675
0.007721065079728388
0.008392462043183033
0.007721065079728388
0.007721065079728388
0.006378271152819104
0.006378271152819104
0.006378271152819104
0.0050354772259098195
0.004364080262455177
0.003692683299000534
0.0050354772259098195
0.003692683299000534
0.003692683299000534
0.004364080262455177
0.006042572671091783
0.006378271152819104
0.006378271152819104
0.007049668116273747
0.007721065079728388
0.008392462043183033
0.008392462043183033
0.007721065079728388
0.007721065079728388
0.007721065079728388
0.007721065079728388
0.007049668116273747
0.0050354772259098195
0.0050354772259098195
0.004364080262455177
0.003356984817273213
0.004364080262455177
0.003692683299000534
0.003692683299000534
0.004699778744182497
0.004699778744182497
0.006042572671091783
0.006378271152819104
0.006378271152819104
0.007385366598001068
0.008392462043183033
0.008728160524910353
0.009063859006637675
0.009063859006637675
0.008392462043183033
0.008392462043183033
0.007721065079728388
0.007385366598001068
0.006378271152819104
0.0050354772259098195
0.004364080262455177
0.003692683299000534
0.003692683299000534
0.003692683299000534
0.004364080262455177
0.004364080262455177
0.0050354772259098195
0.0050354772259098195
0.006378271152819104
0.006378271152819104
0.007721065079728388
0.008392462043183033
0.009063859006637675
0.009735255970092317
0.007721065079728388
0.007721065079728388
0.007721065079728388
0.007721065079728388
0.007721065079728388
0.0050354772259098195
0.004699778744182497
0.004364080262455177
0.003692683299000534
0.003356984817273213
0.003692683299000534
0.004364080262455177
0.004364080262455177
0.004364080262455177
0.0050354772259098195
0.005706874189364461
0.006378271152819104
0.007721065079728388
0.008392462043183033
0.009063859006637675
0.009063859006637675
0.009063859006637675
0.009063859006637675
0.009063859006637675
0.008392462043183033
0.007385366598001068
0.006378271152819104
0.0050354772259098195
0.004364080262455177
0.003692683299000534
0.003692683299000534
0.003692683299000534
0.003692683299000534
0.004699778744182497
0.004364080262455177
0.0050354772259098195
0.005706874189364461
0.006378271152819104
0.007721065079728388
0.009063859006637675
0.009735255970092317
0.009063859006637675
0.009063859006637675
0.007721065079728388
0.007721065079728388
0.007721065079728388
0.006378271152819104
0.0050354772259098195
0.003692683299000534
0.0030212863355458916
0.0023498893720912484
0.0023498893720912484
0.0023498893720912484
0.0023498893720912484
0.003356984817273213
0.003692683299000534
0.004699778744182497
0.005706874189364461
0.007385366598001068
0.007721065079728388
0.009063859006637675
0.010406652933546959
0.010406652933546959
0.009735255970092317
0.009063859006637675
0.009063859006637675
0.007721065079728388
0.007049668116273747
0.005706874189364461
0.004364080262455177
0.003356984817273213
0.0023498893720912484
0.0023498893720912484
0.0023498893720912484
0.0030212863355458916
0.003356984817273213
0.004364080262455177
0.0050354772259098195
0.006042572671091783
0.007049668116273747
0.007721065079728388
0.009735255970092317
0.010406652933546959
0.009735255970092317
0.009735255970092317
0.009735255970092317
0.009063859006637675
0.008728160524910353
0.007049668116273747
0.005706874189364461
0.004364080262455177
0.003692683299000534
0.0030212863355458916
0.0023498893720912484
0.0030212863355458916
0.003692683299000534
0.003692683299000534
0.004364080262455177
0.0050354772259098195
0.006378271152819104
0.007721065079728388
0.009063859006637675
0.009063859006637675
0.009735255970092317
0.009735255970092317
0.009063859006637675
0.008728160524910353
0.007721065079728388
0.007721065079728388
0.007721065079728388
0.0050354772259098195
0.003692683299000534
0.0023498893720912484
0.0023498893720912484
0.0023498893720912484
0.0023498893720912484
0.0023498893720912484
0.003692683299000534
0.004364080262455177
0.004364080262455177
0.006042572671091783
0.007721065079728388
0.009063859006637675
0.009735255970092317
0.010406652933546959
0.010406652933546959
0.010406652933546959
0.009063859006637675
0.009063859006637675
0.008392462043183033
0.007049668116273747
0.005706874189364461
0.003692683299000534
0.0030212863355458916
0.0023498893720912484
0.0023498893720912484
0.003692683299000534
0.003692683299000534
0.0050354772259098195
0.0050354772259098195
0.0050354772259098195
0.005706874189364461
0.007721065079728388
0.008392462043183033
0.010070954451819639
0.010406652933546959
0.010406652933546959
0.009735255970092317
0.009063859006637675
0.009063859006637675
0.008728160524910353
0.007721065079728388
0.005706874189364461
0.003692683299000534
0.003356984817273213
0.0030212863355458916
0.003356984817273213
0.0023498893720912484
0.003356984817273213
0.004699778744182497
0.0050354772259098195
0.0050354772259098195
0.0050354772259098195
0.007721065079728388
0.009063859006637675
0.009735255970092317
0.010406652933546959
0.010406652933546959
0.010406652933546959
0.010070954451819639
0.009063859006637675
0.007721065079728388
0.006713969634546426
0.0050354772259098195
0.003692683299000534
0.0030212863355458916
0.0023498893720912484
0.0023498893720912484
0.0023498893720912484
0.0030212863355458916
0.003692683299000534
0.003692683299000534
0.0050354772259098195
0.005706874189364461
0.007049668116273747
0.008728160524910353
0.009735255970092317
0.009399557488364994
0.010406652933546959
0.009735255970092317
0.009063859006637675
0.009063859006637675
0.008392462043183033
0.007385366598001068
0.006042572671091783
0.003692683299000534
0.0023498893720912484
0.0023498893720912484
0.0030212863355458916
0.0030212863355458916
0.003692683299000534
0.004364080262455177
0.0050354772259098195
0.0050354772259098195
0.007049668116273747
0.007721065079728388
0.009063859006637675
0.010406652933546959
0.010406652933546959
0.010406652933546959
0.009735255970092317
0.009063859006637675
0.009063859006637675
0.007721065079728388
0.007049668116273747
0.0050354772259098195
0.003692683299000534
0.003692683299000534
0.0023498893720912484
0.0023498893720912484
0.003692683299000534
0.003356984817273213
0.003692683299000534
0.0050354772259098195
0.0050354772259098195
0.006378271152819104
0.007049668116273747
0.009063859006637675
0.009735255970092317
0.010406652933546959
0.010406652933546959
0.010406652933546959
0.009735255970092317
0.009063859006637675
0.007721065079728388
0.006378271152819104
0.0050354772259098195
0.0050354772259098195
0.0030212863355458916
0.0023498893720912484
0.0023498893720912484
0.0030212863355458916
0.0023498893720912484
0.004364080262455177
0.004699778744182497
0.0050354772259098195
0.007049668116273747
0.007721065079728388
0.009063859006637675
0.009735255970092317
0.009735255970092317
0.010070954451819639
0.009063859006637675
0.009735255970092317
0.008392462043183033
0.007721065079728388
0.006378271152819104
0.0050354772259098195
0.003692683299000534
0.0030212863355458916
0.0023498893720912484
0.0023498893720912484
0.003692683299000534
0.003692683299000534
0.0030212863355458916
0.0050354772259098195
0.0050354772259098195
0.006378271152819104
0.007721065079728388
0.008392462043183033
0.009735255970092317
0.010406652933546959
0.009735255970092317
0.009063859006637675
0.009063859006637675
0.009063859006637675
0.007721065079728388
0.006378271152819104
0.005706874189364461
0.004364080262455177
0.0023498893720912484
0.0023498893720912484
0.003692683299000534
0.0030212863355458916
0.0030212863355458916
0.003692683299000534
0.004364080262455177
0.0050354772259098195
0.006378271152819104
0.007049668116273747
0.008056763561455708
0.009735255970092317
0.010406652933546959
0.009735255970092317
0.008392462043183033
0.008728160524910353
0.007721065079728388
0.007721065079728388
0.006042572671091783
0.004364080262455177
0.003692683299000534
0.0023498893720912484
0.0023498893720912484
0.0023498893720912484
0.0023498893720912484
0.003356984817273213
0.003356984817273213
0.003692683299000534
0.0050354772259098195
0.006378271152819104
0.006378271152819104
0.007721065079728388
0.009063859006637675
0.009063859006637675
0.009063859006637675
0.008728160524910353
0.007721065079728388
0.007385366598001068
0.007049668116273747
0.0050354772259098195
0.003692683299000534
0.003356984817273213
0.0023498893720912484
0.0023498893720912484
0.003356984817273213
0.003692683299000534
0.003356984817273213
0.003692683299000534
0.004364080262455177
0.0050354772259098195
0.007049668116273747
0.007721065079728388
0.007721065079728388
0.010406652933546959
0.010070954451819639
0.009399557488364994
0.009063859006637675
0.009063859006637675
0.009063859006637675
0.007721065079728388
0.006378271152819104
0.0050354772259098195
0.004364080262455177
0.003692683299000534
0.0030212863355458916
0.0023498893720912484
0.003692683299000534
0.004364080262455177
0.0050354772259098195
0.0050354772259098195
0.0050354772259098195
0.006378271152819104
0.006378271152819104
0.008728160524910353
0.010070954451819639
0.010406652933546959
0.010406652933546959
0.009735255970092317
0.009063859006637675
0.009063859006637675
0.008392462043183033
0.006378271152819104
0.0050354772259098195
0.004364080262455177
0.003692683299000534
0.003692683299000534
0.003356984817273213
0.004364080262455177
0.004364080262455177
0.003692683299000534
0.004699778744182497
0.0050354772259098195
0.006378271152819104
0.007721065079728388
0.007721065079728388
0.008392462043183033
0.009063859006637675
0.009063859006637675
0.008728160524910353
0.007721065079728388
0.007721065079728388
0.007049668116273747
0.005706874189364461
0.0050354772259098195
0.004364080262455177
0.003356984817273213
0.0023498893720912484
0.0030212863355458916
0.0030212863355458916
0.003692683299000534
0.004364080262455177
0.004364080262455177
0.0050354772259098195
0.006378271152819104
0.007721065079728388
0.008392462043183033
0.009063859006637675
0.009063859006637675
0.009063859006637675
0.007721065079728388
0.008056763561455708
0.008392462043183033
0.007385366598001068
0.006378271152819104
0.0050354772259098195
0.003692683299000534
0.003692683299000534
0.004364080262455177
0.003692683299000534
0.004364080262455177
0.0050354772259098195
0.0050354772259098195
0.004364080262455177
0.006378271152819104
0.007049668116273747
0.007721065079728388
0.008392462043183033
0.009063859006637675
0.009735255970092317
0.010406652933546959
0.008392462043183033
0.007721065079728388
0.009063859006637675
0.007721065079728388
0.007049668116273747
0.0050354772259098195
0.004364080262455177
0.003692683299000534
0.0030212863355458916
0.0030212863355458916
0.003356984817273213
0.004364080262455177
0.004364080262455177
0.004364080262455177
0.0050354772259098195
0.006378271152819104
0.006378271152819104
0.007721065079728388
0.009063859006637675
0.009063859006637675
0.008392462043183033
0.009063859006637675
0.007721065079728388
0.007721065079728388
0.007049668116273747
0.006378271152819104
0.0050354772259098195
0.003692683299000534
0.003692683299000534
0.003356984817273213
0.0030212863355458916
0.0023498893720912484
0.003692683299000534
0.004364080262455177
0.0050354772259098195
0.0050354772259098195
0.005706874189364461
0.007721065079728388
0.009063859006637675
0.009063859006637675
0.009063859006637675
0.009063859006637675
0.009063859006637675
0.007721065079728388
0.008392462043183033
0.007049668116273747
0.006042572671091783
0.0050354772259098195
0.003356984817273213
0.003692683299000534
0.0030212863355458916
0.0030212863355458916
0.0030212863355458916
0.003692683299000534
0.0050354772259098195
0.0050354772259098195
0.005706874189364461
0.006378271152819104
0.007721065079728388
0.008728160524910353
0.008392462043183033
0.009735255970092317
0.009063859006637675
0.009063859006637675
0.007721065079728388
0.007721065079728388
0.006378271152819104
0.006378271152819104
0.0050354772259098195
0.004364080262455177
0.003692683299000534
0.003692683299000534
0.0030212863355458916
0.003692683299000534
0.003692683299000534
0.004364080262455177
0.0050354772259098195
0.0050354772259098195
0.006378271152819104
0.007721065079728388
0.008392462043183033
0.009063859006637675
0.009063859006637675
0.009063859006637675
0.009063859006637675
0.009063859006637675
0.007721065079728388
0.007049668116273747
0.006713969634546426
0.0050354772259098195
0.003692683299000534
0.003356984817273213
0.003692683299000534
0.003692683299000534
0.003692683299000534
0.003692683299000534
0.004364080262455177
0.0050354772259098195
0.0050354772259098195
0.0050354772259098195
0.007721065079728388
0.007721065079728388
0.007721065079728388
0.009063859006637675
0.008392462043183033
0.007721065079728388
0.007721065079728388
0.007721065079728388
0.007049668116273747
0.006378271152819104
0.0050354772259098195
0.003692683299000534
0.0023498893720912484
0.0030212863355458916
0.003692683299000534
0.0023498893720912484
0.003692683299000534
0.004364080262455177
0.0050354772259098195
0.0050354772259098195
0.006042572671091783
0.007049668116273747
0.007721065079728388
0.009735255970092317
0.009063859006637675
0.008728160524910353
0.008728160524910353
0.008728160524910353
0.008392462043183033
0.007721065079728388
0.006378271152819104
0.005706874189364461
0.004028381780727854
0.003356984817273213
0.0030212863355458916
0.003692683299000534
0.0030212863355458916
0.003692683299000534
0.004364080262455177
0.0050354772259098195
0.006378271152819104
0.007049668116273747
0.007049668116273747
0.008392462043183033
0.009735255970092317
0.009063859006637675
0.009063859006637675
0.009063859006637675
0.007721065079728388
0.007721065079728388
0.007721065079728388
0.006713969634546426
0.005706874189364461
0.004364080262455177
0.003692683299000534
0.0030212863355458916
0.0030212863355458916
0.004364080262455177
0.003356984817273213
0.003692683299000534
0.004699778744182497
0.005706874189364461
0.005706874189364461
0.007049668116273747
0.007721065079728388
0.008728160524910353
0.009063859006637675
0.009063859006637675
0.009063859006637675
0.008392462043183033
0.007721065079728388
0.007721065079728388
0.006378271152819104
0.0050354772259098195
0.003692683299000534
0.0030212863355458916
0.0030212863355458916
0.0030212863355458916
0.0023498893720912484
0.003692683299000534
0.0050354772259098195
0.0050354772259098195
0.006042572671091783
0.006378271152819104
0.007385366598001068
0.008392462043183033
0.009063859006637675
0.008728160524910353
0.008392462043183033
0.007721065079728388
0.007721065079728388
0.007721065079728388
0.006042572671091783
0.0050354772259098195
0.004699778744182497
0.003692683299000534
0.0030212863355458916
0.002014190890363927
0.003356984817273213
0.0023498893720912484
0.0030212863355458916
0.004364080262455177
0.004364080262455177
0.0050354772259098195
0.006378271152819104
0.007385366598001068
0.008392462043183033
0.009735255970092317
0.009063859006637675
0.009063859006637675
0.008728160524910353
0.009063859006637675
0.007721065079728388
0.007049668116273747
0.006378271152819104
0.005706874189364461
0.004364080262455177
0.0023498893720912484
0.0030212863355458916
0.003692683299000534
0.004364080262455177
0.0023498893720912484
0.004364080262455177
0.004699778744182497
0.0050354772259098195
0.006378271152819104
0.007721065079728388
0.008728160524910353
0.009735255970092317
0.010070954451819639
0.009063859006637675
0.009063859006637675
0.009063859006637675
0.009063859006637675
0.007721065079728388
0.006378271152819104
0.0050354772259098195
0.003692683299000534
0.0030212863355458916
0.0023498893720912484
0.0023498893720912484
0.0030212863355458916
0.003692683299000534
0.003692683299000534
0.0050354772259098195
0.006378271152819104
0.007049668116273747
0.007721065079728388
0.007721065079728388
0.009735255970092317
0.010406652933546959
0.009063859006637675
0.009063859006637675
0.008728160524910353
0.007721065079728388
0.007385366598001068
0.006378271152819104
0.0050354772259098195
0.003692683299000534
0.003356984817273213
0.0030212863355458916
0.0030212863355458916
0.003692683299000534
0.003692683299000534
0.003692683299000534
0.004364080262455177
0.0050354772259098195
0.006042572671091783
0.007049668116273747
0.007721065079728388
0.009063859006637675
0.009063859006637675
0.009063859006637675
0.008728160524910353
0.007721065079728388
0.007721065079728388
0.007721065079728388
0.006378271152819104
0.004364080262455177
0.003692683299000534
0.0030212863355458916
0.0023498893720912484
0.0016784924086366065
0.0023498893720912484
0.003356984817273213
0.003356984817273213
0.004364080262455177
0.0050354772259098195
0.006378271152819104
0.007721065079728388
0.008392462043183033
0.009735255970092317
0.010406652933546959
0.010406652933546959
0.009063859006637675
0.008728160524910353
0.009063859006637675
0.007721065079728388
0.006378271152819104
0.005706874189364461
0.004364080262455177
0.003692683299000534
0.0023498893720912484
0.0023498893720912484
0.003692683299000534
0.003692683299000534
0.004699778744182497
0.0050354772259098195
0.006042572671091783
0.006378271152819104
0.008392462043183033
0.009735255970092317
0.010070954451819639
0.010406652933546959
0.010406652933546959
0.009063859006637675
0.009063859006637675
0.009063859006637675
0.007721065079728388
0.007049668116273747
0.0050354772259098195
0.004364080262455177
0.003692683299000534
0.0030212863355458916
0.0023498893720912484
0.0023498893720912484
0.003692683299000534
0.003692683299000534
0.004699778744182497
0.0050354772259098195
0.006042572671091783
0.006378271152819104
0.007721065079728388
0.009735255970092317
0.009735255970092317
0.009735255970092317
0.009063859006637675
0.008392462043183033
0.008392462043183033
0.007721065079728388
0.006378271152819104
0.0050354772259098195
0.003692683299000534
0.0023498893720912484
0.0023498893720912484
0.0023498893720912484
0.0023498893720912484
0.0030212863355458916
0.004364080262455177
0.003692683299000534
0.0050354772259098195
0.006378271152819104
0.007049668116273747
0.007721065079728388
0.009063859006637675
0.010406652933546959
0.010406652933546959
0.009735255970092317
0.009063859006637675
0.009063859006637675
0.009063859006637675
0.007049668116273747
0.0050354772259098195
0.004364080262455177
0.0023498893720912484
0.0023498893720912484
0.0023498893720912484
0.003356984817273213
0.0030212863355458916
0.003692683299000534
0.004364080262455177
0.0050354772259098195
0.006378271152819104
0.007721065079728388
0.007721065079728388
0.009063859006637675
0.009735255970092317
0.009735255970092317
0.009735255970092317
0.009063859006637675
0.007721065079728388
0.007721065079728388
0.006378271152819104
0.0050354772259098195
0.003692683299000534
0.0023498893720912484
0.003356984817273213
0.0023498893720912484
0.003356984817273213
0.003692683299000534
0.004364080262455177
0.004364080262455177
0.004364080262455177
0.0050354772259098195
0.007049668116273747
0.009063859006637675
0.009063859006637675
0.008728160524910353
0.009063859006637675
0.009735255970092317
0.009063859006637675
0.007721065079728388
0.007721065079728388
0.007721065079728388
0.005706874189364461
0.004364080262455177
0.003692683299000534
0.0023498893720912484
0.0023498893720912484
0.0030212863355458916
0.003692683299000534
0.003692683299000534
0.0050354772259098195
0.0050354772259098195
0.005706874189364461
0.006378271152819104
0.007721065079728388
0.009063859006637675
0.009063859006637675
0.009735255970092317
0.009735255970092317
0.008728160524910353
0.008728160524910353
0.007721065079728388
0.007721065079728388
0.006378271152819104
0.0050354772259098195
0.004364080262455177
0.0023498893720912484
0.0023498893720912484
0.0030212863355458916
0.003692683299000534
0.004364080262455177
0.0050354772259098195
0.0050354772259098195
0.0050354772259098195
0.007049668116273747
0.007721065079728388
0.007721065079728388
0.008392462043183033
0.009063859006637675
0.008728160524910353
0.007721065079728388
0.007721065079728388
0.007049668116273747
0.006378271152819104
0.0050354772259098195
0.004364080262455177
0.003356984817273213
0.0023498893720912484
0.003692683299000534
0.003692683299000534
0.004364080262455177
0.0050354772259098195
0.0050354772259098195
0.0050354772259098195
0.0050354772259098195
0.007385366598001068
0.007721065079728388
0.007721065079728388
0.009063859006637675
0.009063859006637675
0.009063859006637675
0.008392462043183033
0.007721065079728388
0.007721065079728388
0.007721065079728388
0.005706874189364461
0.004364080262455177
0.004364080262455177
0.003692683299000534
0.003692683299000534
0.003692683299000534
0.003692683299000534
0.004364080262455177
0.004364080262455177
0.0050354772259098195
0.0050354772259098195
0.0050354772259098195
0.007049668116273747
0.007721065079728388
0.007721065079728388
0.007721065079728388
0.007721065079728388
0.007721065079728388
0.007721065079728388
0.007049668116273747
0.006378271152819104
0.0050354772259098195
0.004364080262455177
0.003692683299000534
0.003692683299000534
0.003692683299000534
0.004364080262455177
0.004364080262455177
0.0050354772259098195
0.0050354772259098195
0.005706874189364461
0.006378271152819104
0.006378271152819104
0.007721065079728388
0.007721065079728388
0.008392462043183033
0.007721065079728388
0.007721065079728388
0.007721065079728388
0.007721065079728388
0.007721065079728388
0.007049668116273747
0.006378271152819104
0.004699778744182497
0.004364080262455177
0.003692683299000534
0.004699778744182497
0.0050354772259098195
0.004364080262455177
0.004364080262455177
0.0050354772259098195
0.006042572671091783
0.005706874189364461
0.006378271152819104
0.007385366598001068
0.007721065079728388
0.008392462043183033
0.007721065079728388
0.007721065079728388
0.007721065079728388
0.007049668116273747
0.007049668116273747
0.007049668116273747
0.005706874189364461
0.0050354772259098195
0.0050354772259098195
0.003692683299000534
0.004364080262455177
0.004699778744182497
0.004364080262455177
0.0050354772259098195
0.0050354772259098195
0.006042572671091783
0.005706874189364461
0.006378271152819104
0.006378271152819104
0.007385366598001068
0.007721065079728388
0.007721065079728388
0.007721065079728388
0.007721065079728388
0.007721065079728388
0.007385366598001068
0.006378271152819104
0.0050354772259098195
0.0050354772259098195
0.004699778744182497
0.003692683299000534
0.004364080262455177
0.004364080262455177
0.003356984817273213
0.004364080262455177
0.0050354772259098195
0.0050354772259098195
0.0050354772259098195
0.006042572671091783
0.006378271152819104
0.007049668116273747
0.007721065079728388
0.007721065079728388
0.007049668116273747
0.007049668116273747
0.007721065079728388
0.007049668116273747
0.006713969634546426
0.005706874189364461
0.004699778744182497
0.003692683299000534
0.003692683299000534
0.004364080262455177
0.003692683299000534
0.003692683299000534
0.004364080262455177
0.004364080262455177
0.0050354772259098195
0.0050354772259098195
0.005706874189364461
0.006378271152819104
0.007721065079728388
0.007721065079728388
0.007721065079728388
0.007721065079728388
0.007721065079728388
0.007721065079728388
0.007049668116273747
0.006378271152819104
0.006378271152819104
0.0050354772259098195
0.004699778744182497
0.004364080262455177
0.004364080262455177
0.0050354772259098195
0.004364080262455177
0.0050354772259098195
0.0050354772259098195
0.0050354772259098195
0.006378271152819104
0.007385366598001068
0.007721065079728388
0.009063859006637675
0.009063859006637675
0.007721065079728388
0.009063859006637675
0.008392462043183033
0.007385366598001068
0.007049668116273747
0.007721065079728388
0.0050354772259098195
0.0050354772259098195
0.0050354772259098195
0.004364080262455177
0.003692683299000534
0.004699778744182497
0.004364080262455177
0.003692683299000534
0.004364080262455177
0.0050354772259098195
0.006378271152819104
0.006378271152819104
0.006378271152819104
0.008392462043183033
0.007721065079728388
0.007721065079728388
0.008392462043183033
0.007721065079728388
0.007385366598001068
0.006378271152819104
0.006378271152819104
0.006042572671091783
0.004699778744182497
0.003692683299000534
0.003692683299000534
0.003356984817273213
0.003692683299000534
0.004364080262455177
0.004364080262455177
0.004364080262455177
0.0050354772259098195
0.006378271152819104
0.006378271152819104
0.007049668116273747
0.009063859006637675
0.008728160524910353
0.009399557488364994
0.009063859006637675
0.009063859006637675
0.008392462043183033
0.007721065079728388
0.006378271152819104
0.0050354772259098195
0.004699778744182497
0.0030212863355458916
0.0023498893720912484
0.0023498893720912484
0.003692683299000534
0.004364080262455177
0.004364080262455177
0.004364080262455177
0.0050354772259098195
0.0050354772259098195
0.007049668116273747
0.007721065079728388
0.008728160524910353
0.009063859006637675
0.009735255970092317
0.008728160524910353
0.008728160524910353
0.008392462043183033
0.007721065079728388
0.007049668116273747
0.0050354772259098195
0.004699778744182497
0.003356984817273213
0.003356984817273213
0.0030212863355458916
0.003356984817273213
0.0023498893720912484
0.003356984817273213
0.0050354772259098195
0.0050354772259098195
0.006042572671091783
0.007049668116273747
0.007721065079728388
0.009063859006637675
0.009735255970092317
0.009735255970092317
0.009063859006637675
0.007721065079728388
0.008392462043183033
0.008392462043183033
0.007049668116273747
0.0050354772259098195
0.003356984817273213
0.0023498893720912484
0.0023498893720912484
0.0023498893720912484
0.0023498893720912484
0.0023498893720912484
0.003692683299000534
0.003692683299000534
0.004699778744182497
0.005706874189364461
0.006378271152819104
0.007721065079728388
0.009063859006637675
0.009735255970092317
0.009735255970092317
0.009063859006637675
0.008728160524910353
0.007721065079728388
0.008392462043183033
0.007385366598001068
0.004364080262455177
0.003356984817273213
0.0030212863355458916
0.0023498893720912484
0.0023498893720912484
0.0023498893720912484
0.003692683299000534
0.003692683299000534
0.004364080262455177
0.0050354772259098195
0.006378271152819104
0.007721065079728388
0.009063859006637675
0.010406652933546959
0.010406652933546959
0.010406652933546959
0.010070954451819639
0.009063859006637675
0.008392462043183033
0.007721065079728388
0.006378271152819104
0.0050354772259098195
0.003692683299000534
0.0023498893720912484
0.0010070954451819635
0.0016784924086366065
0.002014190890363927
0.0023498893720912484
0.0030212863355458916
0.003692683299000534
0.0050354772259098195
0.005706874189364461
0.007721065079728388
0.009063859006637675
0.010406652933546959
0.010406652933546959
0.010406652933546959
0.010406652933546959
0.009063859006637675
0.008392462043183033
0.008392462043183033
0.006378271152819104
0.003692683299000534
0.0023498893720912484
0.002014190890363927
0.002014190890363927
0.002014190890363927
0.0023498893720912484
0.0023498893720912484
0.003692683299000534
0.003692683299000534
0.0050354772259098195
0.006378271152819104
0.007721065079728388
0.009735255970092317
0.010406652933546959
0.011078049897001601
0.010406652933546959
0.010406652933546959
0.009735255970092317
0.009063859006637675
0.007721065079728388
0.006378271152819104
0.0050354772259098195
0.0023498893720912484
0.002014190890363927
0.0010070954451819635
0.0010070954451819635
0.0016784924086366065
0.0023498893720912484
0.003692683299000534
0.0050354772259098195
0.005706874189364461
0.007721065079728388
0.009063859006637675
0.010070954451819639
0.011078049897001601
0.011749446860456245
0.011078049897001601
0.010406652933546959
0.009735255970092317
0.009063859006637675
0.007385366598001068
0.0050354772259098195
0.003692683299000534
0.0016784924086366065
0.0006713969634546426
0.0010070954451819635
0.0010070954451819635
0.0016784924086366065
0.0023498893720912484
0.0023498893720912484
0.003692683299000534
0.004699778744182497
0.006378271152819104
0.007721065079728388
0.010406652933546959
0.011078049897001601
0.011413748378728923
0.010406652933546959
0.010406652933546959
0.009735255970092317
0.008392462043183033
0.007721065079728388
0.006378271152819104
0.004364080262455177
0.0030212863355458916
0.0016784924086366065
0.0006713969634546426
0.0016784924086366065
0.0023498893720912484
0.0023498893720912484
0.0030212863355458916
0.004699778744182497
0.0050354772259098195
0.007385366598001068
0.008392462043183033
0.010406652933546959
0.011749446860456245
0.011749446860456245
0.010406652933546959
0.009735255970092317
0.009735255970092317
0.009063859006637675
0.007721065079728388
0.006378271152819104
0.004364080262455177
0.0023498893720912484
0.0010070954451819635
0.0010070954451819635
0.0016784924086366065
0.0023498893720912484
0.0023498893720912484
0.003356984817273213
0.003356984817273213
0.006378271152819104
0.007385366598001068
0.009063859006637675
0.010406652933546959
0.011078049897001601
0.010406652933546959
0.010406652933546959
0.010406652933546959
0.010406652933546959
0.009399557488364994
0.007721065079728388
0.006378271152819104
0.003692683299000534
0.0023498893720912484
0.0010070954451819635
0.0003356984817273213
0.0016784924086366065
0.0023498893720912484
0.0023498893720912484
0.003692683299000534
0.003692683299000534
0.0050354772259098195
0.006378271152819104
0.009063859006637675
0.010406652933546959
0.012420843823910887
0.012085145342183566
0.011749446860456245
0.010406652933546959
0.009735255970092317
0.009063859006637675
0.007721065079728388
0.0050354772259098195
0.003692683299000534
0.0023498893720912484
0.0010070954451819635
0.0010070954451819635
0.0010070954451819635
0.0023498893720912484
0.0023498893720912484
0.0023498893720912484
0.003692683299000534
0.0050354772259098195
0.006378271152819104
0.009063859006637675
0.011078049897001601
0.011749446860456245
0.013092240787365528
0.012420843823910887
0.011413748378728923
0.010406652933546959
0.009735255970092317
0.007049668116273747
0.0050354772259098195
0.0030212863355458916
0.0016784924086366065
-0.0003356984817273213
-0.0003356984817273213
0.0003356984817273213
0.0006713969634546426
0.0010070954451819635
0.0023498893720912484
0.003692683299000534
0.0050354772259098195
0.007721065079728388
0.009063859006637675
0.011078049897001601
0.013092240787365528
0.013092240787365528
0.013092240787365528
0.012420843823910887
0.010406652933546959
0.009063859006637675
0.007721065079728388
0.0050354772259098195
0.0023498893720912484
-0.0003356984817273213
-0.0016784924086366065
-0.0010070954451819635
-0.0003356984817273213
-0.0003356984817273213
-0.0003356984817273213
0.0016784924086366065
0.0030212863355458916
0.0050354772259098195
0.007721065079728388
0.010406652933546959
0.013092240787365528
0.014435034714274816
0.015106431677729458
0.014435034714274816
0.014435034714274816
0.012420843823910887
0.010406652933546959
0.009063859006637675
0.005706874189364461
0.0023498893720912484
-0.0003356984817273213
-0.0030212863355458916
-0.0030212863355458916
-0.0016784924086366065
-0.0016784924086366065
-0.0003356984817273213
0.0010070954451819635
0.0023498893720912484
0.0050354772259098195
0.007721065079728388
0.010406652933546959
0.01376363775082017
0.0157778286411841
0.0157778286411841
0.0157778286411841
0.014435034714274816
0.013092240787365528
0.012420843823910887
0.009735255970092317
0.006378271152819104
0.002014190890363927
-0.0010070954451819635
-0.0030212863355458916
-0.004364080262455177
-0.0030212863355458916
-0.002014190890363927
-0.0006713969634546426
-0.0003356984817273213
0.0016784924086366065
0.004699778744182497
0.007721065079728388
0.011413748378728923
0.015106431677729458
0.01846341649500267
0.01846341649500267
0.017120622568093383
0.016449225604638743
0.014435034714274816
0.013092240787365528
0.010406652933546959
0.0050354772259098195
0.0010070954451819635
-0.0030212863355458916
-0.005706874189364461
-0.006378271152819104
-0.005706874189364461
-0.004364080262455177
-0.0030212863355458916
-0.0010070954451819635
0.0006713969634546426
0.004699778744182497
0.009063859006637675
0.012756542305638208
0.017456321049820707
0.021149004348821242
0.021149004348821242
0.020477607385366595
0.01846341649500267
0.017120622568093383
0.0157778286411841
0.011749446860456245
0.0050354772259098195
0.0006713969634546426
-0.004364080262455177
-0.008392462043183033
-0.008728160524910353
-0.008392462043183033
-0.007049668116273747
-0.005706874189364461
-0.0030212863355458916
-0.0003356984817273213
0.003692683299000534
0.009063859006637675
0.014435034714274816
0.01913481345845731
0.02349889372091249
0.023163195239185166
0.021149004348821242
0.01846341649500267
0.016449225604638743
0.014435034714274816
0.014099336232547494
0.009063859006637675
0.0010070954451819635
-0.006378271152819104
-0.011078049897001601
-0.012420843823910887
-0.012420843823910887
-0.011413748378728923
-0.008392462043183033
-0.005706874189364461
-0.0030212863355458916
0.0016784924086366065
0.007721065079728388
0.015106431677729458
0.020477607385366595
0.020477607385366595
0.019470511940184634
0.01846341649500267
0.016449225604638743
0.014435034714274816
0.01376363775082017
0.014435034714274816
0.014435034714274816
0.009063859006637675
-0.0016784924086366065
-0.008392462043183033
-0.012420843823910887
-0.01376363775082017
-0.013092240787365528
-0.011078049897001601
-0.008392462043183033
-0.005706874189364461
0.0003356984817273213
0.007721065079728388
0.016449225604638743
0.0157778286411841
0.0157778286411841
0.017792019531548024
0.01812771801327535
0.017120622568093383
0.015106431677729458
0.014435034714274816
0.016784924086366067
0.01846341649500267
0.0157778286411841
0.0030212863355458916
-0.007049668116273747
-0.012756542305638208
-0.014435034714274816
-0.01376363775082017
-0.011078049897001601
-0.008728160524910353
-0.005706874189364461
-0.0003356984817273213
0.007385366598001068
0.0157778286411841
0.0157778286411841
0.016449225604638743
0.017792019531548024
0.01846341649500267
0.017792019531548024
0.0157778286411841
0.0157778286411841
0.017120622568093383
0.01846341649500267
0.0157778286411841
0.0030212863355458916
-0.008392462043183033
-0.01376363775082017
-0.016449225604638743
-0.015106431677729458
-0.012756542305638208
-0.010070954451819639
-0.006378271152819104
-0.0006713969634546426
0.007721065079728388
0.016449225604638743
0.017120622568093383
0.017792019531548024
0.01913481345845731
0.019806210421911954
0.01846341649500267
0.016449225604638743
0.016449225604638743
0.01812771801327535
0.01913481345845731
0.016784924086366067
0.003356984817273213
-0.008392462043183033
-0.014099336232547494
-0.016449225604638743
-0.016449225604638743
-0.01376363775082017
-0.011078049897001601
-0.007721065079728388
-0.0016784924086366065
0.007049668116273747
0.0157778286411841
0.017120622568093383
0.017120622568093383
0.019470511940184634
0.01913481345845731
0.017792019531548024
0.016784924086366067
0.0157778286411841
0.01846341649500267
0.019806210421911954
0.0157778286411841
0.0023498893720912484
-0.009735255970092317
-0.015106431677729458
-0.016449225604638743
-0.016449225604638743
-0.01376363775082017
-0.011413748378728923
-0.007049668116273747
-0.0003356984817273213
0.008392462043183033
0.017120622568093383
0.01846341649500267
0.01846341649500267
0.020477607385366595
0.020477607385366595
0.019470511940184634
0.017120622568093383
0.016449225604638743
0.017792019531548024
0.019806210421911954
0.016449225604638743
0.0023498893720912484
-0.010070954451819639
-0.016449225604638743
-0.017792019531548024
-0.017120622568093383
-0.014435034714274816
-0.011413748378728923
-0.007385366598001068
-0.0006713969634546426
0.007721065079728388
0.017120622568093383
0.01846341649500267
0.01846341649500267
0.020477607385366595
0.020477607385366595
0.019470511940184634
0.017792019531548024
0.017120622568093383
0.01846341649500267
0.020477607385366595
0.017120622568093383
0.0023498893720912484
-0.009735255970092317
-0.016449225604638743
-0.017792019531548024
-0.017792019531548024
-0.015106431677729458
-0.011749446860456245
-0.008392462043183033
-0.0013427939269092851
0.007721065079728388
0.016449225604638743
0.01846341649500267
0.01846341649500267
0.019806210421911954
0.019806210421911954
0.01846341649500267
0.017456321049820707
0.017120622568093383
0.01812771801327535
0.019806210421911954
0.016449225604638743
0.0016784924086366065
-0.010406652933546959
-0.016449225604638743
-0.017792019531548024
-0.016449225604638743
-0.01376363775082017
-0.011749446860456245
-0.007049668116273747
-0.0003356984817273213
0.009735255970092317
0.01846341649500267
0.01913481345845731
0.019806210421911954
0.021149004348821242
0.021149004348821242
0.019806210421911954
0.01846341649500267
0.017792019531548024
0.019806210421911954
0.022156099794003202
0.01846341649500267
0.003692683299000534
-0.010406652933546959
-0.016784924086366067
-0.01846341649500267
-0.017120622568093383
-0.014435034714274816
-0.012420843823910887
-0.007721065079728388
-0.0003356984817273213
0.009735255970092317
0.01846341649500267
0.01812771801327535
0.01846341649500267
0.021149004348821242
0.021149004348821242
0.020477607385366595
0.01846341649500267
0.017792019531548024
0.019470511940184634
0.021820401312275882
0.01846341649500267
0.003692683299000534
-0.011078049897001601
-0.01812771801327535
-0.019806210421911954
-0.01913481345845731
-0.016784924086366067
-0.01376363775082017
-0.008728160524910353
-0.0006713969634546426
0.010406652933546959
0.019806210421911954
0.019470511940184634
0.019806210421911954
0.021149004348821242
0.022156099794003202
0.021149004348821242
0.019470511940184634
0.01846341649500267
0.020813305867093918
0.022491798275730522
0.019806210421911954
0.003356984817273213
-0.012420843823910887
-0.01913481345845731
-0.020477607385366595
-0.019806210421911954
-0.017792019531548024
-0.014435034714274816
-0.009735255970092317
-0.0003356984817273213
0.010406652933546959
0.021820401312275882
0.021149004348821242
0.023163195239185166
0.024505989166094453
0.023834592202639806
0.022491798275730522
0.021149004348821242
0.019806210421911954
0.021149004348821242
0.023163195239185166
0.01846341649500267
-0.0003356984817273213
-0.016449225604638743
-0.023163195239185166
-0.024505989166094453
-0.023163195239185166
-0.01913481345845731
-0.016449225604638743
-0.010406652933546959
-0.0003356984817273213
0.011749446860456245
0.023834592202639806
0.026184481574731057
0.025177386129549097
0.02584878309300374
0.026184481574731057
0.023163195239185166
0.021149004348821242
0.020477607385366595
0.022156099794003202
0.023834592202639806
0.017120622568093383
-0.0003356984817273213
-0.015106431677729458
-0.021820401312275882
-0.024505989166094453
-0.022156099794003202
-0.01846341649500267
-0.015106431677729458
-0.009735255970092317
-0.0003356984817273213
0.011749446860456245
0.023163195239185166
0.023834592202639806
0.023834592202639806
0.025177386129549097
0.023834592202639806
0.022491798275730522
0.021149004348821242
0.01913481345845731
0.020813305867093918
0.021820401312275882
0.0157778286411841
-0.0010070954451819635
-0.014435034714274816
-0.020477607385366595
-0.022491798275730522
-0.020477607385366595
-0.016449225604638743
-0.01376363775082017
-0.009063859006637675
-0.0003356984817273213
0.010406652933546959
0.021149004348821242
0.023163195239185166
0.022491798275730522
0.023163195239185166
0.023163195239185166
0.021149004348821242
0.01913481345845731
0.01846341649500267
0.020477607385366595
0.021149004348821242
0.013092240787365528
-0.0016784924086366065
-0.012420843823910887
-0.01812771801327535
-0.01913481345845731
-0.017120622568093383
-0.014435034714274816
-0.011749446860456245
-0.007721065079728388
0.0003356984817273213
0.010406652933546959
0.01913481345845731
0.021149004348821242
0.021149004348821242
0.021820401312275882
0.021149004348821242
0.019806210421911954
0.01812771801327535
0.016449225604638743
0.01846341649500267
0.01846341649500267
0.0157778286411841
0.004364080262455177
-0.007049668116273747
-0.011749446860456245
-0.015106431677729458
-0.01376363775082017
-0.012420843823910887
-0.010406652933546959
-0.007049668116273747
-0.0030212863355458916
0.0050354772259098195
0.011749446860456245
0.014435034714274816
0.015106431677729458
0.017120622568093383
0.017120622568093383
0.0157778286411841
0.014435034714274816
0.015106431677729458
0.020813305867093918
0.026184481574731057
0.02853437094682231
0.02652018005645838
0.01846341649500267
0.0030212863355458916
-0.007049668116273747
-0.013092240787365528
-0.015106431677729458
-0.014435034714274816
-0.015442130159456776
-0.01376363775082017
-0.006378271152819104
-0.003692683299000534
-0.004364080262455177
0.0030212863355458916
0.010070954451819639
0.013092240787365528
0.015106431677729458
0.015106431677729458
0.016784924086366067
0.02349889372091249
0.029205767910276948
0.02719157701991302
0.020813305867093918
0.0023498893720912484
-0.014435034714274816
-0.019806210421911954
-0.020477607385366595
-0.01846341649500267
-0.0157778286411841
-0.012756542305638208
-0.008392462043183033
0.0016784924086366065
0.0050354772259098195
0.0023498893720912484
0.010406652933546959
0.017792019531548024
0.021149004348821242
0.021149004348821242
0.019470511940184634
0.021149004348821242
0.027862973983367664
0.03189135576409552
0.030212863355458915
0.023163195239185166
0.007721065079728388
-0.007049668116273747
-0.014435034714274816
-0.017120622568093383
-0.014435034714274816
-0.01376363775082017
-0.012420843823910887
-0.009735255970092317
-0.0023498893720912484
0.0050354772259098195
0.004364080262455177
0.010406652933546959
0.017120622568093383
0.019470511940184634
0.020477607385366595
0.01913481345845731
0.020477607385366595
0.02652018005645838
0.030212863355458915
0.027862973983367664
0.021149004348821242
0.004364080262455177
-0.009063859006637675
-0.015106431677729458
-0.016449225604638743
-0.015106431677729458
-0.01376363775082017
-0.012420843823910887
-0.008728160524910353
-0.0010070954451819635
0.006378271152819104
0.005706874189364461
0.011413748378728923
0.017120622568093383
0.019806210421911954
0.020477607385366595
0.01846341649500267
0.01846341649500267
0.023834592202639806
0.026855878538185704
0.025177386129549097
0.017120622568093383
0.0010070954451819635
-0.011078049897001601
-0.015106431677729458
-0.016449225604638743
-0.015106431677729458
-0.012420843823910887
-0.009735255970092317
-0.007049668116273747
0.0010070954451819635
0.007721065079728388
0.009063859006637675
0.013092240787365528
0.01846341649500267
0.019806210421911954
0.019806210421911954
0.01846341649500267
0.01846341649500267
0.022491798275730522
0.025177386129549097
0.023834592202639806
0.01376363775082017
-0.0006713969634546426
-0.010070954451819639
-0.013092240787365528
-0.01376363775082017
-0.012756542305638208
-0.010742351415274281
-0.008392462043183033
-0.005706874189364461
0.0010070954451819635
0.009063859006637675
0.011749446860456245
0.014435034714274816
0.01812771801327535
0.01913481345845731
0.01846341649500267
0.017120622568093383
0.017792019531548024
0.021149004348821242
0.023163195239185166
0.020477607385366595
0.010406652933546959
-0.0030212863355458916
-0.011078049897001601
-0.012420843823910887
-0.013092240787365528
-0.011078049897001601
-0.008728160524910353
-0.008392462043183033
-0.005706874189364461
-0.0003356984817273213
0.007049668116273747
0.012756542305638208
0.0157778286411841
0.01846341649500267
0.019806210421911954
0.01913481345845731
0.017792019531548024
0.017120622568093383
0.020477607385366595
0.022491798275730522
0.01913481345845731
0.007721065079728388
-0.0030212863355458916
-0.008392462043183033
-0.011078049897001601
-0.011749446860456245
-0.009735255970092317
-0.008392462043183033
-0.005706874189364461
-0.003692683299000534
0.0016784924086366065
0.007721065079728388
0.014435034714274816
0.016784924086366067
0.01846341649500267
0.01846341649500267
0.01812771801327535
0.017120622568093383
0.015106431677729458
0.01846341649500267
0.019806210421911954
0.015106431677729458
0.004364080262455177
-0.004364080262455177
-0.009063859006637675
-0.011078049897001601
-0.011078049897001601
-0.009063859006637675
-0.007049668116273747
-0.0050354772259098195
-0.0016784924086366065
0.0023498893720912484
0.007721065079728388
0.014435034714274816
0.01846341649500267
0.019806210421911954
0.01913481345845731
0.01846341649500267
0.016449225604638743
0.015106431677729458
0.017120622568093383
0.017120622568093383
0.010406652933546959
0.0023498893720912484
-0.004364080262455177
-0.008392462043183033
-0.009735255970092317
-0.008392462043183033
-0.007385366598001068
-0.005706874189364461
-0.003692683299000534
-0.0016784924086366065
0.0023498893720912484
0.007049668116273747
0.012420843823910887
0.01846341649500267
0.019806210421911954
0.019806210421911954
0.01846341649500267
0.016449225604638743
0.015106431677729458
0.0157778286411841
0.01376363775082017
0.007721065079728388
0.0016784924086366065
-0.0030212863355458916
-0.006378271152819104
-0.007049668116273747
-0.005706874189364461
-0.004364080262455177
-0.003356984817273213
-0.0016784924086366065
0.0003356984817273213
0.003356984817273213
0.006378271152819104
0.011749446860456245
0.016449225604638743
0.01913481345845731
0.01846341649500267
0.017792019531548024
0.017120622568093383
0.0157778286411841
0.015106431677729458
0.010406652933546959
0.007049668116273747
0.0010070954451819635
-0.0030212863355458916
-0.005706874189364461
-0.005706874189364461
-0.0050354772259098195
-0.003692683299000534
-0.0030212863355458916
-0.0010070954451819635
0.0006713969634546426
0.0030212863355458916
0.006378271152819104
0.010406652933546959
0.015106431677729458
0.017120622568093383
0.016449225604638743
0.0157778286411841
0.014435034714274816
0.013092240787365528
0.011749446860456245
0.009735255970092317
0.0050354772259098195
0.0010070954451819635
-0.0030212863355458916
-0.004364080262455177
-0.004364080262455177
-0.003692683299000534
-0.0016784924086366065
-0.0003356984817273213
0.0003356984817273213
0.0023498893720912484
0.0050354772259098195
0.007721065079728388
0.011078049897001601
0.014435034714274816
0.0157778286411841
0.0157778286411841
0.014435034714274816
0.013092240787365528
0.012420843823910887
0.011749446860456245
0.009063859006637675
0.006378271152819104
0.0023498893720912484
-0.0003356984817273213
-0.0016784924086366065
-0.0016784924086366065
-0.0003356984817273213
0.0003356984817273213
0.0010070954451819635
0.0023498893720912484
0.003692683299000534
0.006042572671091783
0.007721065079728388
0.010406652933546959
0.013092240787365528
0.01376363775082017
0.01376363775082017
0.013092240787365528
0.013092240787365528
0.011749446860456245
0.010406652933546959
0.009063859006637675
0.006378271152819104
0.004028381780727854
0.0016784924086366065
-0.0003356984817273213
-0.0003356984817273213
-0.0003356984817273213
0.0006713969634546426
0.0010070954451819635
0.0010070954451819635
0.0023498893720912484
0.004364080262455177
0.006378271152819104
0.007721065079728388
0.011413748378728923
0.011749446860456245
0.012085145342183566
0.011749446860456245
0.010406652933546959
0.010406652933546959
0.010406652933546959
0.007721065079728388
0.0050354772259098195
0.003692683299000534
0.0010070954451819635
-0.0003356984817273213
-0.0003356984817273213
0.0003356984817273213
0.0010070954451819635
0.0010070954451819635
0.0023498893720912484
0.003356984817273213
0.0050354772259098195
0.006378271152819104
0.009063859006637675
0.010406652933546959
0.011749446860456245
0.011749446860456245
0.011413748378728923
0.010406652933546959
0.010406652933546959
0.010070954451819639
0.007721065079728388
0.005706874189364461
0.003692683299000534
0.0023498893720912484
0.0010070954451819635
0.0010070954451819635
0.0016784924086366065
0.0023498893720912484
0.0023498893720912484
0.0023498893720912484
0.003692683299000534
0.0050354772259098195
0.007049668116273747
0.007721065079728388
0.009735255970092317
0.010406652933546959
0.011749446860456245
0.011078049897001601
0.010406652933546959
0.010070954451819639
0.009735255970092317
0.007721065079728388
0.006378271152819104
0.004364080262455177
0.0023498893720912484
0.0016784924086366065
0.0010070954451819635
0.0016784924086366065
0.0023498893720912484
0.0030212863355458916
0.003692683299000534
0.003692683299000534
0.0050354772259098195
0.007049668116273747
0.007721065079728388
0.009735255970092317
0.011078049897001601
0.011413748378728923
0.010406652933546959
0.009063859006637675
0.009063859006637675
0.009063859006637675
0.007721065079728388
0.006378271152819104
0.004364080262455177
0.003356984817273213
0.0023498893720912484
0.002014190890363927
0.0023498893720912484
0.0030212863355458916
0.0030212863355458916
0.003692683299000534
0.0050354772259098195
0.005706874189364461
0.006713969634546426
0.007721065079728388
0.010406652933546959
0.010406652933546959
0.011413748378728923
0.010406652933546959
0.009399557488364994
0.009063859006637675
0.009063859006637675
0.007721065079728388
0.006042572671091783
0.003692683299000534
0.0023498893720912484
0.002014190890363927
0.0016784924086366065
0.0016784924086366065
0.0023498893720912484
0.003692683299000534
0.0030212863355458916
0.004028381780727854
0.0050354772259098195
0.006378271152819104
0.007721065079728388
0.008728160524910353
0.009735255970092317
0.010406652933546959
0.009735255970092317
0.009063859006637675
0.009063859006637675
0.008392462043183033
0.007385366598001068
0.005706874189364461
0.003692683299000534
0.0023498893720912484
0.0016784924086366065
0.0010070954451819635
0.0016784924086366065
0.0030212863355458916
0.0030212863355458916
0.003692683299000534
0.003692683299000534
0.0050354772259098195
0.006378271152819104
0.008728160524910353
0.010406652933546959
0.010406652933546959
0.011078049897001601
0.011078049897001601
0.009735255970092317
0.009063859006637675
0.009063859006637675
0.007721065079728388
0.0050354772259098195
0.003692683299000534
0.0023498893720912484
0.0016784924086366065
0.0023498893720912484
0.0023498893720912484
0.0023498893720912484
0.0030212863355458916
0.003692683299000534
0.004364080262455177
0.0050354772259098195
0.006042572671091783
0.007721065079728388
0.009735255970092317
0.010070954451819639
0.010406652933546959
0.010406652933546959
0.009735255970092317
0.009063859006637675
0.009063859006637675
0.007721065079728388
0.006378271152819104
0.0050354772259098195
0.0030212863355458916
0.0023498893720912484
0.0023498893720912484
0.0023498893720912484
0.0023498893720912484
0.003692683299000534
0.003692683299000534
0.003692683299000534
0.0050354772259098195
0.007049668116273747
0.007721065079728388
0.009735255970092317
0.010070954451819639
0.010406652933546959
0.010406652933546959
0.009735255970092317
0.009063859006637675
0.007721065079728388
0.007721065079728388
0.006378271152819104
0.0050354772259098195
0.0023498893720912484
0.0023498893720912484
0.0016784924086366065
0.0023498893720912484
0.0023498893720912484
0.003356984817273213
0.003692683299000534
0.004364080262455177
0.0050354772259098195
0.007049668116273747
0.008392462043183033
0.009735255970092317
0.010406652933546959
0.010406652933546959
0.010406652933546959
0.010406652933546959
0.009063859006637675
0.008392462043183033
0.007721065079728388
0.006042572671091783
0.0050354772259098195
0.0030212863355458916
0.002014190890363927
0.0023498893720912484
0.0023498893720912484
0.0023498893720912484
0.003692683299000534
0.003692683299000534
0.004364080262455177
0.0050354772259098195
0.006378271152819104
0.007721065079728388
0.009063859006637675
0.010070954451819639
0.010070954451819639
0.010406652933546959
0.009735255970092317
0.009063859006637675
0.007721065079728388
0.007049668116273747
0.006042572671091783
0.004364080262455177
0.0030212863355458916
0.0023498893720912484
0.0016784924086366065
0.0030212863355458916
0.0023498893720912484
0.0030212863355458916
0.003692683299000534
0.0050354772259098195
0.0050354772259098195
0.007049668116273747
0.007721065079728388
0.009735255970092317
0.010406652933546959
0.010406652933546959
0.010070954451819639
0.009735255970092317
0.009063859006637675
0.009063859006637675
0.007049668116273747
0.006378271152819104
0.004699778744182497
0.0023498893720912484
0.0023498893720912484
0.0023498893720912484
0.0023498893720912484
0.0023498893720912484
0.0023498893720912484
0.003692683299000534
0.004699778744182497
0.0050354772259098195
0.006378271152819104
0.007721065079728388
0.009063859006637675
0.010406652933546959
0.010406652933546959
0.009735255970092317
0.009735255970092317
0.009063859006637675
0.009063859006637675
0.007721065079728388
0.005706874189364461
0.0050354772259098195
0.0023498893720912484
0.002014190890363927
0.0023498893720912484
