EMG Sensor 0
0.0
0.0
0.0
0.0
0.0
0.0
0.0
0.0
0.0
0.0
0.0
0.0
0.0
0.0
0.0
0.0
0.0
0.0
0.0
0.0
0.0
0.0
0.0
0.0
0.0
0.0
0.0
0.0
0.0
0.0
0.0
0.0
0.0
0.0
0.0
0.0
0.0
0.0
0.0
0.0
0.0
0.0
0.0
0.0
0.0
0.0
0.0
0.0
0.0
0.0
0.0
0.0
0.0
0.0
0.0
0.0
0.0
0.0
0.0
0.0
0.0
0.0
0.0
0.0
0.0
0.0
0.0
0.0
0.0
0.0
0.0
0.0
0.0
0.0
0.0
0.0
0.0
0.0
0.0
0.0
0.0
0.0
0.0
0.0
0.0
0.0
0.0
0.0
0.0
0.0
0.0
0.0
0.0
0.0
0.0
0.0
0.0
0.0
0.0
0.0
0.0
0.0
0.0
0.0
0.0
0.0
0.0
0.0
0.0
0.0
0.0
0.0
0.0
0.0
0.0
0.0
0.0
0.0
0.0
0.0
0.0
0.0
0.0
0.0
0.0
0.0
0.0
0.0
0.0
0.0
0.0
0.0
0.0
0.0
0.0
0.0
0.0
0.0
0.0
0.0
0.0
0.0
0.0
0.0
0.0
0.0
0.0
0.0
0.0
0.0
0.0
0.0
0.0
0.0
0.0
0.0
0.0
0.0
0.0
0.0
0.0
0.0
0.0
0.0
0.0
0.0
0.0
0.0
0.0
0.0
0.0
0.0
0.0
0.0
0.0
0.0
0.0
0.0
0.0
0.0
0.0
0.0
0.0
0.0
0.0
0.0
0.0
0.0
0.0
0.0
0.0
0.0
0.0
0.0
0.0
0.0
0.0
0.0
0.0
0.0
0.0
0.0
0.0
0.0
0.0
0.0
0.0
0.0
0.0
0.0
0.0
0.0
0.0
0.0
0.0
0.0
0.0
0.0
0.0
0.0
0.0
0.0
0.0
0.0
0.0
0.0
0.0
0.0
0.0
0.0
0.0
0.0
0.0
0.0
0.0
0.0
0.0
0.0
0.0
0.0
0.0
0.0
0.0
0.0
0.0
0.0
0.0
0.0
0.0
0.0
0.0
0.0
0.0
0.0
0.0
0.0
0.0
0.0
0.0
0.0
0.0
0.0
0.0
0.0
0.0
0.0
0.0
0.0
0.0
0.0
0.0
0.0
0.0
0.0
0.0
0.0
0.0
0.0
0.0
0.0
0.0
0.0
0.0
0.0
0.0
0.0
0.0
0.0
0.0
0.0
0.0
0.0
0.0
0.0
0.0
0.0
0.0
0.0
0.0
0.0
0.0
0.0
0.0
0.0
0.0
0.0
0.0
0.0
0.0
0.0
0.0
0.0
0.0
0.0
0.0
0.0
0.0
0.0
0.0
0.0
0.0
0.0
0.0
-0.009063859006637675
0.0010070954451819635
0.0016784924086366065
0.0030212863355458916
0.003356984817273213
0.003692683299000534
0.004364080262455177
0.003692683299000534
0.004699778744182497
0.004364080262455177
0.004364080262455177
0.004364080262455177
0.003692683299000534
0.0023498893720912484
0.0023498893720912484
0.0023498893720912484
0.0016784924086366065
0.0016784924086366065
0.0010070954451819635
0.0006713969634546426
0.0003356984817273213
0.0010070954451819635
0.0010070954451819635
0.0023498893720912484
0.0023498893720912484
0.0023498893720912484
0.003692683299000534
0.004699778744182497
0.0050354772259098195
0.0050354772259098195
0.004364080262455177
0.004699778744182497
0.004364080262455177
0.003692683299000534
0.0023498893720912484
0.002014190890363927
0.0023498893720912484
0.0010070954451819635
0.0010070954451819635
0.0010070954451819635
0.0010070954451819635
0.0010070954451819635
0.0010070954451819635
0.0023498893720912484
0.004364080262455177
0.003692683299000534
0.003692683299000534
0.004699778744182497
0.0050354772259098195
0.0050354772259098195
0.006042572671091783
0.0050354772259098195
0.0050354772259098195
0.0050354772259098195
0.004364080262455177
0.003692683299000534
0.0023498893720912484
0.0023498893720912484
0.0013427939269092851
0.0010070954451819635
0.0010070954451819635
0.0016784924086366065
0.0010070954451819635
0.0016784924086366065
0.0023498893720912484
0.0030212863355458916
0.003692683299000534
0.003692683299000534
0.0050354772259098195
0.0050354772259098195
0.004364080262455177
0.0050354772259098195
0.0050354772259098195
0.0050354772259098195
0.003692683299000534
0.003692683299000534
0.0030212863355458916
0.0023498893720912484
0.0016784924086366065
0.0010070954451819635
0.0003356984817273213
0.0010070954451819635
0.0006713969634546426
0.0010070954451819635
0.0016784924086366065
0.0023498893720912484
0.0023498893720912484
0.003692683299000534
0.004364080262455177
0.0050354772259098195
0.0050354772259098195
0.0050354772259098195
0.0050354772259098195
0.0050354772259098195
0.004364080262455177
0.004699778744182497
0.003692683299000534
0.0023498893720912484
0.002014190890363927
0.0010070954451819635
0.0010070954451819635
0.0010070954451819635
0.0013427939269092851
0.0010070954451819635
0.0016784924086366065
0.0023498893720912484
0.0023498893720912484
0.003356984817273213
0.003692683299000534
0.003692683299000534
0.003692683299000534
0.0050354772259098195
0.0050354772259098195
0.004699778744182497
0.004364080262455177
0.003356984817273213
0.003692683299000534
0.0023498893720912484
0.002014190890363927
0.0050354772259098195
0.0050354772259098195
0.0050354772259098195
0.004364080262455177
0.003692683299000534
0.003692683299000534
0.0023498893720912484
0.0023498893720912484
0.0010070954451819635
0.0016784924086366065
0.0010070954451819635
0.0003356984817273213
-0.0003356984817273213
0.0010070954451819635
0.0023498893720912484
0.0023498893720912484
0.0023498893720912484
0.0030212863355458916
0.003692683299000534
0.004364080262455177
0.004364080262455177
0.004364080262455177
0.0050354772259098195
0.005706874189364461
0.004699778744182497
0.0023498893720912484
0.0030212863355458916
0.0023498893720912484
0.0023498893720912484
0.0016784924086366065
0.0010070954451819635
0.0010070954451819635
0.0010070954451819635
0.0010070954451819635
0.0010070954451819635
0.0010070954451819635
0.0010070954451819635
0.0006713969634546426
-0.0003356984817273213
0.0016784924086366065
0.0010070954451819635
0.0010070954451819635
0.0023498893720912484
0.003356984817273213
0.003692683299000534
0.003692683299000534
0.003692683299000534
0.004364080262455177
0.004699778744182497
0.003692683299000534
0.003692683299000534
0.003692683299000534
0.0030212863355458916
0.003356984817273213
0.0023498893720912484
0.0016784924086366065
0.0010070954451819635
0.0010070954451819635
-0.0003356984817273213
0.0003356984817273213
0.0016784924086366065
0.0023498893720912484
0.0016784924086366065
0.0023498893720912484
0.003692683299000534
0.003692683299000534
0.003692683299000534
0.004699778744182497
0.0010070954451819635
0.0023498893720912484
0.0023498893720912484
0.0023498893720912484
0.003692683299000534
0.004364080262455177
0.0050354772259098195
0.003692683299000534
0.0050354772259098195
0.005706874189364461
0.0050354772259098195
0.004699778744182497
0.004364080262455177
0.003692683299000534
0.003692683299000534
0.0023498893720912484
0.0010070954451819635
0.0016784924086366065
0.0010070954451819635
0.0010070954451819635
0.0010070954451819635
0.0010070954451819635
0.0016784924086366065
0.0023498893720912484
0.0023498893720912484
0.003356984817273213
0.003692683299000534
0.004699778744182497
0.004699778744182497
0.0050354772259098195
0.0050354772259098195
0.0050354772259098195
0.004699778744182497
0.004364080262455177
0.003692683299000534
0.0030212863355458916
0.0023498893720912484
0.0023498893720912484
0.0013427939269092851
0.0010070954451819635
0.0010070954451819635
0.0010070954451819635
0.0010070954451819635
0.0010070954451819635
0.0016784924086366065
0.0023498893720912484
0.0023498893720912484
0.003692683299000534
0.0050354772259098195
0.0050354772259098195
0.0050354772259098195
0.0050354772259098195
0.0050354772259098195
0.0050354772259098195
0.004364080262455177
0.003692683299000534
0.003692683299000534
0.0030212863355458916
0.0016784924086366065
0.0010070954451819635
-0.0003356984817273213
0.0010070954451819635
0.0010070954451819635
0.0010070954451819635
0.0010070954451819635
0.002014190890363927
0.0023498893720912484
0.003692683299000534
0.0030212863355458916
0.003692683299000534
0.0050354772259098195
0.0050354772259098195
0.0050354772259098195
0.0050354772259098195
0.004364080262455177
0.003692683299000534
0.0030212863355458916
0.0030212863355458916
0.0023498893720912484
0.0023498893720912484
0.0016784924086366065
0.0016784924086366065
0.0016784924086366065
0.0003356984817273213
0.0010070954451819635
0.0010070954451819635
0.0016784924086366065
0.0023498893720912484
0.0023498893720912484
0.0030212863355458916
0.004364080262455177
0.0050354772259098195
0.004699778744182497
0.004699778744182497
0.0050354772259098195
0.0050354772259098195
0.003692683299000534
0.003692683299000534
0.0023498893720912484
0.0023498893720912484
0.0016784924086366065
0.0016784924086366065
0.0010070954451819635
0.0010070954451819635
0.0016784924086366065
0.0010070954451819635
0.0016784924086366065
0.0023498893720912484
0.0023498893720912484
0.0023498893720912484
0.003692683299000534
0.004364080262455177
0.0050354772259098195
0.0050354772259098195
0.003692683299000534
0.0050354772259098195
0.004699778744182497
0.003692683299000534
0.003692683299000534
0.0023498893720912484
0.0023498893720912484
0.0023498893720912484
0.0016784924086366065
0.0016784924086366065
0.0016784924086366065
0.0010070954451819635
0.0010070954451819635
0.0010070954451819635
0.0030212863355458916
0.003692683299000534
0.003356984817273213
0.004699778744182497
0.0050354772259098195
0.0050354772259098195
0.0050354772259098195
0.0050354772259098195
0.0050354772259098195
0.004699778744182497
0.004364080262455177
0.004364080262455177
0.003692683299000534
0.003692683299000534
0.0023498893720912484
0.0023498893720912484
0.0023498893720912484
0.002014190890363927
0.0010070954451819635
0.0016784924086366065
0.0023498893720912484
0.0023498893720912484
0.0030212863355458916
0.0030212863355458916
0.004364080262455177
0.004364080262455177
0.0050354772259098195
0.0050354772259098195
0.005706874189364461
0.0050354772259098195
0.004364080262455177
0.0050354772259098195
0.0030212863355458916
0.0030212863355458916
0.0023498893720912484
0.0023498893720912484
0.0010070954451819635
0.0010070954451819635
0.0010070954451819635
0.0010070954451819635
0.0010070954451819635
0.0023498893720912484
0.0023498893720912484
0.0023498893720912484
0.003692683299000534
0.0030212863355458916
0.003692683299000534
0.0050354772259098195
0.0050354772259098195
0.0050354772259098195
0.0050354772259098195
0.0050354772259098195
0.0050354772259098195
0.003692683299000534
0.003692683299000534
0.0023498893720912484
0.0023498893720912484
0.0010070954451819635
0.0010070954451819635
0.0010070954451819635
0.0010070954451819635
0.0016784924086366065
0.0016784924086366065
0.0023498893720912484
0.0023498893720912484
0.003692683299000534
0.003692683299000534
0.004699778744182497
0.0050354772259098195
0.005706874189364461
0.0050354772259098195
0.003692683299000534
0.004364080262455177
0.003692683299000534
0.003692683299000534
0.0030212863355458916
0.0030212863355458916
0.0023498893720912484
0.0016784924086366065
0.0010070954451819635
0.0010070954451819635
0.0010070954451819635
0.0010070954451819635
0.0016784924086366065
0.0016784924086366065
0.0023498893720912484
0.003692683299000534
0.003356984817273213
0.003692683299000534
0.004699778744182497
0.004364080262455177
0.0050354772259098195
0.0050354772259098195
0.004699778744182497
0.003692683299000534
0.003692683299000534
0.0023498893720912484
0.0023498893720912484
0.0016784924086366065
0.002014190890363927
0.0010070954451819635
0.0010070954451819635
0.0006713969634546426
0.0010070954451819635
0.0010070954451819635
0.002014190890363927
0.0023498893720912484
0.0023498893720912484
0.003356984817273213
0.003692683299000534
0.004364080262455177
0.0050354772259098195
0.0050354772259098195
0.004364080262455177
0.004364080262455177
0.004364080262455177
0.003692683299000534
0.0023498893720912484
0.0023498893720912484
0.0023498893720912484
0.002014190890363927
0.0010070954451819635
0.0010070954451819635
0.0010070954451819635
0.0016784924086366065
0.0016784924086366065
0.0023498893720912484
0.0023498893720912484
0.0023498893720912484
0.0023498893720912484
0.003692683299000534
0.004364080262455177
0.0050354772259098195
0.0050354772259098195
0.0050354772259098195
0.0050354772259098195
0.004364080262455177
0.004364080262455177
0.003356984817273213
0.0023498893720912484
0.0023498893720912484
0.0023498893720912484
0.0016784924086366065
0.002014190890363927
0.0023498893720912484
0.0016784924086366065
0.0023498893720912484
0.003692683299000534
0.003692683299000534
0.003692683299000534
0.004364080262455177
0.003692683299000534
0.004699778744182497
0.0050354772259098195
0.0050354772259098195
0.004364080262455177
0.004364080262455177
0.004364080262455177
0.003692683299000534
0.0023498893720912484
0.0023498893720912484
0.002014190890363927
0.0016784924086366065
0.0003356984817273213
0.0003356984817273213
0.0010070954451819635
0.0016784924086366065
0.0010070954451819635
0.0016784924086366065
0.0023498893720912484
0.003356984817273213
0.003692683299000534
0.003692683299000534
0.0050354772259098195
0.0050354772259098195
0.004364080262455177
0.004699778744182497
0.003692683299000534
0.003692683299000534
0.003692683299000534
0.0023498893720912484
0.0023498893720912484
0.002014190890363927
0.0023498893720912484
0.0010070954451819635
0.0010070954451819635
0.0010070954451819635
0.0016784924086366065
0.0023498893720912484
0.0023498893720912484
0.0030212863355458916
0.003692683299000534
0.003692683299000534
0.004364080262455177
0.004699778744182497
0.0050354772259098195
0.0050354772259098195
0.0050354772259098195
0.0050354772259098195
0.004364080262455177
0.004364080262455177
0.003692683299000534
0.003356984817273213
0.0023498893720912484
0.0016784924086366065
0.0010070954451819635
0.0010070954451819635
0.0010070954451819635
0.0016784924086366065
0.002014190890363927
0.002014190890363927
0.0030212863355458916
0.0030212863355458916
0.003692683299000534
0.004364080262455177
0.004364080262455177
0.004699778744182497
0.004699778744182497
0.0050354772259098195
0.004364080262455177
0.003692683299000534
0.003692683299000534
0.0023498893720912484
0.0016784924086366065
0.0016784924086366065
0.0010070954451819635
0.0010070954451819635
0.0006713969634546426
0.0010070954451819635
0.0016784924086366065
0.0023498893720912484
0.0023498893720912484
0.0023498893720912484
0.0030212863355458916
0.003692683299000534
0.004364080262455177
0.004364080262455177
0.004364080262455177
0.0050354772259098195
0.0050354772259098195
0.004364080262455177
0.004364080262455177
0.003692683299000534
0.003692683299000534
0.003356984817273213
0.0023498893720912484
0.0016784924086366065
0.0016784924086366065
0.0016784924086366065
0.0003356984817273213
0.0010070954451819635
0.002014190890363927
0.0023498893720912484
0.0023498893720912484
0.0030212863355458916
0.004028381780727854
0.0050354772259098195
0.0050354772259098195
0.0050354772259098195
0.0050354772259098195
0.0050354772259098195
0.0050354772259098195
0.0050354772259098195
0.003692683299000534
0.003692683299000534
0.003692683299000534
0.0023498893720912484
0.0023498893720912484
0.0016784924086366065
0.002014190890363927
0.0016784924086366065
0.0016784924086366065
0.0023498893720912484
0.0023498893720912484
0.0023498893720912484
0.003356984817273213
0.004364080262455177
0.003692683299000534
0.004364080262455177
0.004364080262455177
0.0050354772259098195
0.004364080262455177
0.003692683299000534
0.003692683299000534
0.0030212863355458916
0.0023498893720912484
0.002014190890363927
0.0010070954451819635
-0.0003356984817273213
0.0006713969634546426
-0.0003356984817273213
-0.0003356984817273213
0.0010070954451819635
0.0010070954451819635
0.002014190890363927
0.0023498893720912484
0.0023498893720912484
0.0030212863355458916
0.003692683299000534
0.003692683299000534
0.003692683299000534
0.004364080262455177
0.0050354772259098195
0.004364080262455177
0.003692683299000534
0.0023498893720912484
0.0030212863355458916
0.0030212863355458916
0.0023498893720912484
0.0016784924086366065
0.0023498893720912484
0.0016784924086366065
0.0010070954451819635
0.0010070954451819635
0.0016784924086366065
0.0023498893720912484
0.0023498893720912484
0.003356984817273213
0.003692683299000534
0.004364080262455177
0.0050354772259098195
0.0050354772259098195
0.005706874189364461
0.0050354772259098195
0.004364080262455177
0.003692683299000534
0.003692683299000534
0.0023498893720912484
0.0023498893720912484
0.0016784924086366065
0.0010070954451819635
0.0016784924086366065
0.0010070954451819635
0.0010070954451819635
0.0016784924086366065
0.002014190890363927
0.0023498893720912484
0.003692683299000534
0.003692683299000534
0.003692683299000534
0.0050354772259098195
0.004364080262455177
0.004364080262455177
0.0050354772259098195
0.0050354772259098195
0.004364080262455177
0.004364080262455177
0.003692683299000534
0.0023498893720912484
0.0023498893720912484
0.0023498893720912484
0.0016784924086366065
0.0006713969634546426
0.0010070954451819635
0.0010070954451819635
0.0010070954451819635
0.0013427939269092851
0.0023498893720912484
0.0023498893720912484
0.0023498893720912484
0.003356984817273213
0.004699778744182497
0.0050354772259098195
0.0050354772259098195
0.0050354772259098195
0.0050354772259098195
0.0050354772259098195
0.0050354772259098195
0.0030212863355458916
0.0023498893720912484
0.0023498893720912484
0.0023498893720912484
0.0010070954451819635
0.0006713969634546426
0.0010070954451819635
0.0010070954451819635
0.0006713969634546426
0.0016784924086366065
0.0023498893720912484
0.0023498893720912484
0.003356984817273213
0.0030212863355458916
0.004364080262455177
0.0050354772259098195
0.005706874189364461
0.0050354772259098195
0.0050354772259098195
0.0050354772259098195
0.0050354772259098195
0.003692683299000534
0.004028381780727854
0.003692683299000534
0.0023498893720912484
0.002014190890363927
0.0023498893720912484
0.0023498893720912484
0.0023498893720912484
0.0023498893720912484
0.0023498893720912484
0.0023498893720912484
0.003692683299000534
0.004364080262455177
0.003692683299000534
0.004364080262455177
0.0050354772259098195
0.0050354772259098195
0.004364080262455177
0.0050354772259098195
0.0050354772259098195
0.0050354772259098195
0.003692683299000534
0.0023498893720912484
0.0023498893720912484
0.0023498893720912484
0.0016784924086366065
0.0006713969634546426
0.0006713969634546426
0.0010070954451819635
0.0016784924086366065
0.0010070954451819635
0.0010070954451819635
0.0023498893720912484
0.0023498893720912484
0.0023498893720912484
0.003356984817273213
0.003692683299000534
0.004364080262455177
0.004364080262455177
0.004364080262455177
0.004364080262455177
0.004364080262455177
0.0030212863355458916
0.0023498893720912484
0.0023498893720912484
0.0023498893720912484
0.0016784924086366065
0.0010070954451819635
0.0003356984817273213
0.0016784924086366065
0.0016784924086366065
0.0010070954451819635
0.0016784924086366065
0.0030212863355458916
0.003692683299000534
0.003692683299000534
0.004364080262455177
0.0050354772259098195
0.0050354772259098195
0.0050354772259098195
0.0050354772259098195
0.004364080262455177
0.003692683299000534
0.003692683299000534
0.0023498893720912484
0.0023498893720912484
0.0023498893720912484
0.0010070954451819635
0.0010070954451819635
0.0010070954451819635
0.0010070954451819635
0.0016784924086366065
0.002014190890363927
0.0023498893720912484
0.003356984817273213
0.003692683299000534
0.003692683299000534
0.004364080262455177
0.004699778744182497
0.0050354772259098195
0.0050354772259098195
0.0050354772259098195
0.004364080262455177
0.0050354772259098195
0.004364080262455177
0.003692683299000534
0.0030212863355458916
0.0023498893720912484
0.0016784924086366065
0.0016784924086366065
0.0010070954451819635
0.0010070954451819635
0.0016784924086366065
0.0023498893720912484
0.0023498893720912484
0.003356984817273213
0.003692683299000534
0.003692683299000534
0.0050354772259098195
0.0050354772259098195
0.0050354772259098195
0.0050354772259098195
0.0050354772259098195
0.004364080262455177
0.004364080262455177
0.003692683299000534
0.0023498893720912484
0.0030212863355458916
0.0023498893720912484
0.002014190890363927
0.0010070954451819635
0.0010070954451819635
0.0010070954451819635
0.0016784924086366065
0.0023498893720912484
0.0023498893720912484
0.0023498893720912484
0.003692683299000534
0.003692683299000534
0.003692683299000534
0.0050354772259098195
0.0050354772259098195
0.0050354772259098195
0.004364080262455177
0.004364080262455177
0.004364080262455177
0.0030212863355458916
0.0023498893720912484
0.0023498893720912484
0.0010070954451819635
0.0006713969634546426
-0.0003356984817273213
0.0010070954451819635
0.0016784924086366065
0.0016784924086366065
0.0023498893720912484
0.0023498893720912484
0.0023498893720912484
0.003692683299000534
0.003692683299000534
0.003692683299000534
0.0050354772259098195
0.0050354772259098195
0.0050354772259098195
0.0050354772259098195
0.0050354772259098195
0.004364080262455177
0.003692683299000534
0.003692683299000534
0.0023498893720912484
0.0023498893720912484
0.002014190890363927
0.0010070954451819635
0.0010070954451819635
0.0010070954451819635
0.0010070954451819635
0.0016784924086366065
0.002014190890363927
0.0023498893720912484
0.003356984817273213
0.004364080262455177
0.004699778744182497
0.0050354772259098195
0.004364080262455177
0.004364080262455177
0.0050354772259098195
0.003692683299000534
0.003692683299000534
0.003692683299000534
0.0023498893720912484
0.0023498893720912484
0.002014190890363927
0.0010070954451819635
0.0010070954451819635
0.0010070954451819635
0.0016784924086366065
0.002014190890363927
0.002014190890363927
0.0023498893720912484
0.0030212863355458916
0.003692683299000534
0.004364080262455177
0.0050354772259098195
0.0050354772259098195
0.0050354772259098195
0.0050354772259098195
0.0050354772259098195
0.004364080262455177
0.004364080262455177
0.003692683299000534
0.0023498893720912484
0.0016784924086366065
0.0016784924086366065
0.0016784924086366065
0.0016784924086366065
0.0010070954451819635
0.0006713969634546426
0.0010070954451819635
0.002014190890363927
0.0023498893720912484
0.0030212863355458916
0.0030212863355458916
0.003356984817273213
0.004364080262455177
0.003692683299000534
0.003692683299000534
0.003356984817273213
0.003692683299000534
0.003692683299000534
0.003692683299000534
0.0023498893720912484
0.0023498893720912484
0.002014190890363927
0.0023498893720912484
0.0016784924086366065
0.0016784924086366065
0.0010070954451819635
0.0016784924086366065
0.0016784924086366065
0.0023498893720912484
0.003692683299000534
0.003692683299000534
0.003692683299000534
0.003692683299000534
0.003692683299000534
0.003692683299000534
0.003692683299000534
0.003692683299000534
0.003356984817273213
0.0023498893720912484
0.0023498893720912484
0.0023498893720912484
0.0023498893720912484
0.0023498893720912484
0.0016784924086366065
0.0010070954451819635
0.0023498893720912484
0.0010070954451819635
0.0016784924086366065
0.0023498893720912484
0.0023498893720912484
0.0023498893720912484
0.0023498893720912484
0.0023498893720912484
0.0030212863355458916
0.0023498893720912484
0.0023498893720912484
0.003692683299000534
0.003692683299000534
0.003692683299000534
0.003692683299000534
0.003356984817273213
0.0030212863355458916
0.0023498893720912484
0.0023498893720912484
0.0023498893720912484
0.0023498893720912484
0.0023498893720912484
0.0023498893720912484
0.0023498893720912484
0.0023498893720912484
0.0023498893720912484
0.003356984817273213
0.0023498893720912484
0.0030212863355458916
0.003692683299000534
0.003692683299000534
0.004364080262455177
0.003692683299000534
0.004364080262455177
0.004364080262455177
0.003692683299000534
0.003692683299000534
0.003692683299000534
0.003692683299000534
0.003692683299000534
0.0030212863355458916
0.0023498893720912484
0.0023498893720912484
0.0023498893720912484
0.0023498893720912484
0.0023498893720912484
0.0023498893720912484
0.0023498893720912484
0.0023498893720912484
0.003356984817273213
0.003356984817273213
0.003692683299000534
0.003356984817273213
0.003692683299000534
0.003692683299000534
0.003692683299000534
0.004364080262455177
0.003692683299000534
0.003692683299000534
0.003692683299000534
0.003692683299000534
0.0030212863355458916
0.0023498893720912484
0.0023498893720912484
0.0023498893720912484
0.0023498893720912484
0.0016784924086366065
0.0023498893720912484
0.0023498893720912484
0.0023498893720912484
0.0023498893720912484
0.0023498893720912484
0.0023498893720912484
0.0030212863355458916
0.0023498893720912484
0.003692683299000534
0.003356984817273213
0.003692683299000534
0.003692683299000534
0.0030212863355458916
0.0023498893720912484
0.0030212863355458916
0.0030212863355458916
0.0023498893720912484
0.0023498893720912484
0.0023498893720912484
0.0023498893720912484
0.0016784924086366065
0.0016784924086366065
0.0023498893720912484
0.0030212863355458916
0.0030212863355458916
0.003692683299000534
0.003692683299000534
0.003692683299000534
0.004364080262455177
0.003692683299000534
0.003692683299000534
0.004699778744182497
0.004364080262455177
0.003692683299000534
0.003356984817273213
0.0030212863355458916
0.003356984817273213
0.0030212863355458916
0.0023498893720912484
0.0030212863355458916
0.0023498893720912484
0.0023498893720912484
0.0023498893720912484
0.0023498893720912484
0.0023498893720912484
0.003692683299000534
0.003692683299000534
0.003356984817273213
0.003692683299000534
0.003692683299000534
0.003692683299000534
0.003692683299000534
0.004364080262455177
0.004364080262455177
0.0030212863355458916
0.0023498893720912484
0.0023498893720912484
0.0023498893720912484
0.0023498893720912484
0.002014190890363927
0.0016784924086366065
0.0016784924086366065
0.0010070954451819635
0.0023498893720912484
0.002014190890363927
0.0023498893720912484
0.0023498893720912484
0.0023498893720912484
0.0030212863355458916
0.003356984817273213
0.003692683299000534
0.003356984817273213
0.003692683299000534
0.003692683299000534
0.004364080262455177
0.003692683299000534
0.0030212863355458916
0.003692683299000534
0.0030212863355458916
0.0023498893720912484
0.0023498893720912484
0.0023498893720912484
0.0023498893720912484
0.002014190890363927
0.0016784924086366065
0.0023498893720912484
0.0023498893720912484
0.003692683299000534
0.003692683299000534
0.003692683299000534
0.003692683299000534
0.003692683299000534
0.004364080262455177
0.004364080262455177
0.003692683299000534
0.004364080262455177
0.0023498893720912484
0.0030212863355458916
0.0023498893720912484
0.0023498893720912484
0.0023498893720912484
0.0023498893720912484
0.0023498893720912484
0.0023498893720912484
0.0023498893720912484
0.0016784924086366065
0.0023498893720912484
0.003692683299000534
0.0030212863355458916
0.003356984817273213
0.0050354772259098195
0.004364080262455177
0.004699778744182497
0.004364080262455177
0.004364080262455177
0.003692683299000534
0.003692683299000534
0.003692683299000534
0.0023498893720912484
0.0023498893720912484
0.0023498893720912484
0.0023498893720912484
0.0023498893720912484
0.0023498893720912484
0.0023498893720912484
0.0023498893720912484
0.0023498893720912484
0.0023498893720912484
0.0023498893720912484
0.003356984817273213
0.0030212863355458916
0.003356984817273213
0.003692683299000534
0.003692683299000534
0.004364080262455177
0.003692683299000534
0.003692683299000534
0.003692683299000534
0.003692683299000534
0.0030212863355458916
0.0023498893720912484
0.0023498893720912484
0.0023498893720912484
0.0023498893720912484
0.0023498893720912484
0.0023498893720912484
0.0023498893720912484
0.0023498893720912484
0.0023498893720912484
0.0023498893720912484
0.0030212863355458916
0.003692683299000534
0.003692683299000534
0.003692683299000534
0.004364080262455177
0.004364080262455177
0.0050354772259098195
0.003692683299000534
0.004364080262455177
0.003692683299000534
0.003692683299000534
0.0030212863355458916
0.0023498893720912484
0.0023498893720912484
0.002014190890363927
0.0023498893720912484
0.0023498893720912484
0.0023498893720912484
0.0023498893720912484
0.002014190890363927
0.0023498893720912484
0.0030212863355458916
0.003692683299000534
0.003692683299000534
0.0023498893720912484
0.003692683299000534
0.003692683299000534
0.003692683299000534
0.003692683299000534
0.003692683299000534
0.003356984817273213
0.0023498893720912484
0.0023498893720912484
0.0016784924086366065
0.0023498893720912484
0.0023498893720912484
0.0023498893720912484
0.0023498893720912484
0.003356984817273213
0.0023498893720912484
0.0023498893720912484
0.003692683299000534
0.003692683299000534
0.003692683299000534
0.003692683299000534
0.004699778744182497
0.004364080262455177
0.004364080262455177
0.003692683299000534
0.004364080262455177
0.004364080262455177
0.004699778744182497
0.003692683299000534
0.003692683299000534
0.0023498893720912484
0.0030212863355458916
0.0023498893720912484
0.0023498893720912484
0.0030212863355458916
0.0023498893720912484
0.0023498893720912484
0.0023498893720912484
0.0030212863355458916
0.003692683299000534
0.003356984817273213
0.003692683299000534
0.003692683299000534
0.003692683299000534
0.003692683299000534
0.004364080262455177
0.003692683299000534
0.003692683299000534
0.003692683299000534
0.003356984817273213
0.0023498893720912484
0.0016784924086366065
0.0023498893720912484
0.002014190890363927
0.0016784924086366065
0.0016784924086366065
0.0010070954451819635
0.002014190890363927
0.0016784924086366065
0.0023498893720912484
0.003356984817273213
0.003692683299000534
0.003692683299000534
0.003692683299000534
0.0023498893720912484
0.003692683299000534
0.003692683299000534
0.0023498893720912484
0.0023498893720912484
0.0023498893720912484
0.0030212863355458916
0.0023498893720912484
0.0023498893720912484
0.0023498893720912484
0.0023498893720912484
0.0016784924086366065
0.0023498893720912484
0.002014190890363927
0.002014190890363927
0.0016784924086366065
0.0023498893720912484
0.003692683299000534
0.003692683299000534
0.0030212863355458916
0.003356984817273213
0.003692683299000534
0.004364080262455177
0.004364080262455177
0.004364080262455177
0.003692683299000534
0.004364080262455177
0.003692683299000534
0.003356984817273213
0.003692683299000534
0.003356984817273213
0.003692683299000534
0.003692683299000534
0.003692683299000534
0.0030212863355458916
0.003356984817273213
0.0030212863355458916
0.003692683299000534
0.003692683299000534
0.004364080262455177
0.004699778744182497
0.003692683299000534
0.003356984817273213
0.003692683299000534
0.004028381780727854
0.003692683299000534
0.0030212863355458916
0.0030212863355458916
0.0023498893720912484
0.0023498893720912484
0.0023498893720912484
0.0023498893720912484
0.0023498893720912484
0.0023498893720912484
0.002014190890363927
0.0023498893720912484
0.0023498893720912484
0.0023498893720912484
0.0023498893720912484
0.003356984817273213
0.003692683299000534
0.003692683299000534
0.0030212863355458916
0.003692683299000534
0.003692683299000534
0.004364080262455177
0.004364080262455177
0.004364080262455177
0.003692683299000534
0.0023498893720912484
0.0023498893720912484
0.0023498893720912484
0.0023498893720912484
0.0023498893720912484
0.003356984817273213
0.0023498893720912484
0.0023498893720912484
0.0023498893720912484
0.003692683299000534
0.003692683299000534
0.003692683299000534
0.003692683299000534
0.004364080262455177
0.004028381780727854
0.003692683299000534
0.004364080262455177
0.003692683299000534
0.003692683299000534
0.004028381780727854
0.0023498893720912484
0.003356984817273213
0.003356984817273213
0.0023498893720912484
0.0016784924086366065
0.0023498893720912484
0.0023498893720912484
0.0023498893720912484
0.002014190890363927
0.0023498893720912484
0.0023498893720912484
0.0023498893720912484
0.003356984817273213
0.003692683299000534
0.003692683299000534
0.003692683299000534
0.003692683299000534
0.003692683299000534
0.004364080262455177
0.003692683299000534
0.004699778744182497
0.004028381780727854
0.003692683299000534
0.003692683299000534
0.003692683299000534
0.003692683299000534
0.003692683299000534
0.003356984817273213
0.0030212863355458916
0.0030212863355458916
0.003356984817273213
0.0023498893720912484
0.0023498893720912484
0.004364080262455177
0.003692683299000534
0.003356984817273213
0.003692683299000534
0.003692683299000534
0.0030212863355458916
0.003692683299000534
0.003692683299000534
0.0030212863355458916
0.003692683299000534
0.0030212863355458916
0.0023498893720912484
0.0023498893720912484
0.0016784924086366065
0.0016784924086366065
0.002014190890363927
0.0023498893720912484
0.0010070954451819635
0.0016784924086366065
0.0023498893720912484
0.0030212863355458916
0.0030212863355458916
0.004364080262455177
0.004364080262455177
0.003692683299000534
0.004364080262455177
0.003692683299000534
0.003692683299000534
0.004364080262455177
0.004364080262455177
0.003692683299000534
0.003692683299000534
0.0023498893720912484
0.0023498893720912484
0.002014190890363927
0.0023498893720912484
0.0023498893720912484
0.0023498893720912484
0.0016784924086366065
0.002014190890363927
0.0023498893720912484
0.0030212863355458916
0.0030212863355458916
0.0023498893720912484
0.003356984817273213
0.003692683299000534
0.003692683299000534
0.003692683299000534
0.004364080262455177
0.004699778744182497
0.003692683299000534
0.003356984817273213
0.003692683299000534
0.0030212863355458916
0.0030212863355458916
0.0023498893720912484
0.0023498893720912484
0.0023498893720912484
0.0023498893720912484
0.0023498893720912484
0.0023498893720912484
0.0023498893720912484
0.0030212863355458916
0.003692683299000534
0.0030212863355458916
0.0030212863355458916
0.003692683299000534
0.003692683299000534
0.003356984817273213
0.003692683299000534
0.004028381780727854
0.003692683299000534
0.0030212863355458916
0.0023498893720912484
0.0023498893720912484
0.002014190890363927
0.0016784924086366065
0.0016784924086366065
0.002014190890363927
0.0016784924086366065
0.0016784924086366065
0.0016784924086366065
0.0023498893720912484
0.0023498893720912484
0.0030212863355458916
0.003692683299000534
0.004028381780727854
0.003692683299000534
0.003692683299000534
0.004364080262455177
0.003692683299000534
0.004364080262455177
0.004364080262455177
0.003692683299000534
0.0030212863355458916
0.0023498893720912484
0.0023498893720912484
0.0030212863355458916
0.0023498893720912484
0.0016784924086366065
0.0023498893720912484
0.0023498893720912484
0.0023498893720912484
0.0023498893720912484
0.003356984817273213
0.003692683299000534
0.003356984817273213
0.003692683299000534
0.003692683299000534
0.003356984817273213
0.004364080262455177
0.003692683299000534
0.0030212863355458916
0.003356984817273213
0.003692683299000534
0.0030212863355458916
0.002014190890363927
0.0023498893720912484
0.0023498893720912484
0.002014190890363927
0.002014190890363927
0.0016784924086366065
0.0023498893720912484
0.0023498893720912484
0.0023498893720912484
0.0030212863355458916
0.004364080262455177
0.003692683299000534
0.004699778744182497
0.003692683299000534
0.003692683299000534
0.0050354772259098195
0.004364080262455177
0.003692683299000534
0.004364080262455177
0.003692683299000534
0.003356984817273213
0.0023498893720912484
0.0023498893720912484
0.0030212863355458916
0.0030212863355458916
0.0023498893720912484
0.0023498893720912484
0.0023498893720912484
0.0023498893720912484
0.0023498893720912484
0.003692683299000534
0.003692683299000534
0.004364080262455177
0.004364080262455177
0.003692683299000534
0.003692683299000534
0.004364080262455177
0.004364080262455177
0.003692683299000534
0.003692683299000534
0.004364080262455177
0.003356984817273213
0.0023498893720912484
0.0023498893720912484
0.0023498893720912484
0.0023498893720912484
0.0023498893720912484
0.0023498893720912484
0.0023498893720912484
0.0023498893720912484
0.0023498893720912484
0.0030212863355458916
0.003356984817273213
0.003692683299000534
0.0023498893720912484
0.0023498893720912484
0.0023498893720912484
0.003692683299000534
0.003692683299000534
0.003692683299000534
0.003692683299000534
0.0030212863355458916
0.0023498893720912484
0.0023498893720912484
0.0016784924086366065
0.0023498893720912484
0.0023498893720912484
0.002014190890363927
0.0016784924086366065
0.0023498893720912484
0.002014190890363927
0.0016784924086366065
0.0023498893720912484
0.003356984817273213
0.003692683299000534
0.003692683299000534
0.003692683299000534
0.004699778744182497
0.004364080262455177
0.004364080262455177
0.003692683299000534
0.003692683299000534
0.003692683299000534
0.0023498893720912484
0.0023498893720912484
0.0023498893720912484
0.0023498893720912484
0.0023498893720912484
0.0023498893720912484
0.0016784924086366065
0.0023498893720912484
0.0023498893720912484
0.0023498893720912484
0.0030212863355458916
0.003356984817273213
0.003692683299000534
0.004364080262455177
0.004364080262455177
0.004364080262455177
0.003692683299000534
0.003692683299000534
0.0023498893720912484
0.0023498893720912484
0.0023498893720912484
0.0023498893720912484
0.002014190890363927
0.0016784924086366065
0.0023498893720912484
0.0023498893720912484
0.002014190890363927
0.0023498893720912484
0.0023498893720912484
0.0023498893720912484
0.0023498893720912484
0.003356984817273213
0.003692683299000534
0.003692683299000534
0.003692683299000534
0.003692683299000534
0.003692683299000534
0.0050354772259098195
0.004364080262455177
0.004364080262455177
0.003692683299000534
0.004364080262455177
0.003692683299000534
0.0023498893720912484
0.0023498893720912484
0.0023498893720912484
0.0023498893720912484
0.0023498893720912484
0.0023498893720912484
0.0016784924086366065
0.0023498893720912484
0.0030212863355458916
0.003692683299000534
0.003692683299000534
0.004699778744182497
0.004699778744182497
0.004364080262455177
0.004028381780727854
0.004364080262455177
0.004364080262455177
0.003692683299000534
0.003692683299000534
0.003692683299000534
0.0023498893720912484
0.0016784924086366065
0.0010070954451819635
0.002014190890363927
0.0023498893720912484
0.0016784924086366065
0.002014190890363927
0.0023498893720912484
0.002014190890363927
0.0030212863355458916
0.0030212863355458916
0.004028381780727854
0.003692683299000534
0.004364080262455177
0.003692683299000534
0.003692683299000534
0.004699778744182497
0.004364080262455177
0.003692683299000534
0.003692683299000534
0.003692683299000534
0.0030212863355458916
0.0023498893720912484
0.0023498893720912484
0.0023498893720912484
0.0023498893720912484
0.0023498893720912484
0.0023498893720912484
0.0023498893720912484
0.0023498893720912484
0.0023498893720912484
0.0023498893720912484
0.003692683299000534
0.004364080262455177
0.003692683299000534
0.003692683299000534
0.003356984817273213
0.004364080262455177
0.003692683299000534
0.004364080262455177
0.003692683299000534
0.003692683299000534
0.0023498893720912484
0.002014190890363927
0.0010070954451819635
0.0016784924086366065
0.0016784924086366065
0.0023498893720912484
0.0023498893720912484
0.0016784924086366065
0.0023498893720912484
0.0023498893720912484
0.0023498893720912484
0.0023498893720912484
0.003692683299000534
0.003692683299000534
0.003692683299000534
0.004364080262455177
0.003692683299000534
0.003692683299000534
0.003692683299000534
0.0030212863355458916
0.0023498893720912484
0.0016784924086366065
-0.0003356984817273213
0.0006713969634546426
0.002014190890363927
0.0023498893720912484
0.0023498893720912484
0.0023498893720912484
0.003356984817273213
0.003692683299000534
0.003692683299000534
0.003692683299000534
0.004364080262455177
0.0050354772259098195
0.0050354772259098195
0.0050354772259098195
0.0050354772259098195
0.004364080262455177
0.0050354772259098195
0.004699778744182497
0.003692683299000534
0.0016784924086366065
0.0006713969634546426
0.0010070954451819635
0.0003356984817273213
0.0010070954451819635
0.0023498893720912484
0.0023498893720912484
0.003356984817273213
0.0023498893720912484
0.003692683299000534
0.003692683299000534
0.004364080262455177
0.004364080262455177
0.003692683299000534
0.003692683299000534
0.003692683299000534
0.003692683299000534
0.003692683299000534
0.003692683299000534
0.004364080262455177
0.0023498893720912484
0.0016784924086366065
-0.0003356984817273213
-0.0003356984817273213
0.0010070954451819635
0.0010070954451819635
0.0023498893720912484
0.0023498893720912484
0.003692683299000534
0.003692683299000534
0.0050354772259098195
0.0050354772259098195
0.0050354772259098195
0.004699778744182497
0.0050354772259098195
0.0050354772259098195
0.003692683299000534
0.003692683299000534
0.004364080262455177
0.004364080262455177
0.003692683299000534
0.0023498893720912484
0.0010070954451819635
-0.0003356984817273213
-0.0010070954451819635
-0.0003356984817273213
0.0010070954451819635
0.002014190890363927
0.0023498893720912484
0.0023498893720912484
0.004364080262455177
0.004364080262455177
0.0050354772259098195
0.0050354772259098195
0.004364080262455177
0.0050354772259098195
0.0050354772259098195
0.0050354772259098195
0.0050354772259098195
0.0050354772259098195
0.004699778744182497
0.003692683299000534
0.0023498893720912484
0.0006713969634546426
-0.0003356984817273213
-0.0003356984817273213
-0.0003356984817273213
0.0010070954451819635
0.0016784924086366065
0.0023498893720912484
0.0023498893720912484
0.003692683299000534
0.0050354772259098195
0.004364080262455177
0.0050354772259098195
0.005706874189364461
0.0050354772259098195
0.0050354772259098195
0.0050354772259098195
0.0050354772259098195
0.004364080262455177
0.004364080262455177
0.003692683299000534
0.002014190890363927
-0.0003356984817273213
-0.0003356984817273213
-0.0003356984817273213
-0.0003356984817273213
0.0010070954451819635
0.0023498893720912484
0.0030212863355458916
0.004364080262455177
0.0050354772259098195
0.005706874189364461
0.006378271152819104
0.005706874189364461
0.006042572671091783
0.0050354772259098195
0.0050354772259098195
0.0050354772259098195
0.003692683299000534
0.004364080262455177
0.003692683299000534
0.0030212863355458916
0.0016784924086366065
-0.0003356984817273213
-0.0010070954451819635
-0.0006713969634546426
-0.0003356984817273213
0.0010070954451819635
0.0010070954451819635
0.002014190890363927
0.003692683299000534
0.004364080262455177
0.0050354772259098195
0.004699778744182497
0.0050354772259098195
0.0050354772259098195
0.0050354772259098195
0.004364080262455177
0.004364080262455177
0.004364080262455177
0.004364080262455177
0.003692683299000534
0.0016784924086366065
0.0006713969634546426
-0.0003356984817273213
-0.0010070954451819635
-0.0016784924086366065
-0.0006713969634546426
-0.0003356984817273213
0.0010070954451819635
0.002014190890363927
0.003692683299000534
0.0050354772259098195
0.004699778744182497
0.006378271152819104
0.005706874189364461
0.006042572671091783
0.005706874189364461
0.0050354772259098195
0.0050354772259098195
0.0050354772259098195
0.004699778744182497
0.0030212863355458916
0.0016784924086366065
0.0010070954451819635
-0.0003356984817273213
-0.0010070954451819635
-0.0003356984817273213
-0.0003356984817273213
0.0010070954451819635
0.0016784924086366065
0.0023498893720912484
0.003692683299000534
0.0050354772259098195
0.0050354772259098195
0.006378271152819104
0.006378271152819104
0.007049668116273747
0.007049668116273747
0.005706874189364461
0.0050354772259098195
0.004699778744182497
0.003692683299000534
0.0023498893720912484
0.002014190890363927
0.0010070954451819635
0.0010070954451819635
-0.0003356984817273213
-0.0003356984817273213
0.0010070954451819635
0.0010070954451819635
0.0023498893720912484
0.0030212863355458916
0.0023498893720912484
0.004364080262455177
0.004699778744182497
0.0050354772259098195
0.0050354772259098195
0.006378271152819104
0.006378271152819104
0.0050354772259098195
0.004364080262455177
0.004364080262455177
0.003356984817273213
0.0023498893720912484
0.0016784924086366065
0.0010070954451819635
0.0003356984817273213
-0.0003356984817273213
-0.0006713969634546426
-0.0003356984817273213
0.0013427939269092851
0.0023498893720912484
0.0016784924086366065
0.0023498893720912484
0.004364080262455177
0.0050354772259098195
0.0050354772259098195
0.006378271152819104
0.007049668116273747
0.006378271152819104
0.0053711757076371405
0.004364080262455177
0.004364080262455177
0.004364080262455177
0.003356984817273213
0.0023498893720912484
0.0010070954451819635
0.0003356984817273213
0.0003356984817273213
0.0003356984817273213
0.0010070954451819635
0.0016784924086366065
0.0023498893720912484
0.0016784924086366065
0.0023498893720912484
0.003692683299000534
0.005706874189364461
0.006378271152819104
0.006378271152819104
0.006378271152819104
0.006378271152819104
0.0050354772259098195
0.0050354772259098195
0.003692683299000534
0.003692683299000534
0.004364080262455177
0.0023498893720912484
0.0010070954451819635
0.0016784924086366065
0.0003356984817273213
0.0006713969634546426
0.0006713969634546426
0.0023498893720912484
0.0016784924086366065
0.0030212863355458916
0.0023498893720912484
0.004364080262455177
0.004699778744182497
0.006042572671091783
0.006378271152819104
0.006378271152819104
0.006378271152819104
0.0050354772259098195
0.004364080262455177
0.004364080262455177
0.003692683299000534
0.0023498893720912484
0.002014190890363927
0.0006713969634546426
0.0010070954451819635
0.0003356984817273213
-0.0003356984817273213
-0.0003356984817273213
0.0010070954451819635
0.0016784924086366065
0.0023498893720912484
0.0023498893720912484
0.003356984817273213
0.004364080262455177
0.0050354772259098195
0.0050354772259098195
0.005706874189364461
0.0050354772259098195
0.0050354772259098195
0.003692683299000534
0.003692683299000534
0.003692683299000534
0.0023498893720912484
0.0023498893720912484
0.0010070954451819635
0.0003356984817273213
0.0003356984817273213
-0.0003356984817273213
0.0003356984817273213
0.0010070954451819635
0.0016784924086366065
0.0023498893720912484
0.003356984817273213
0.004699778744182497
0.0050354772259098195
0.0050354772259098195
0.0050354772259098195
0.006378271152819104
0.006378271152819104
0.005706874189364461
0.0050354772259098195
0.003692683299000534
0.003692683299000534
0.003356984817273213
0.0023498893720912484
0.0010070954451819635
-0.0003356984817273213
0.0003356984817273213
0.0003356984817273213
0.0003356984817273213
0.0006713969634546426
0.0023498893720912484
0.0023498893720912484
0.0023498893720912484
0.003692683299000534
0.0050354772259098195
0.006042572671091783
0.006378271152819104
0.005706874189364461
0.0050354772259098195
0.0050354772259098195
0.0050354772259098195
0.004364080262455177
0.0023498893720912484
0.0023498893720912484
0.0023498893720912484
0.0006713969634546426
0.0006713969634546426
0.0010070954451819635
0.0003356984817273213
-0.0003356984817273213
0.0006713969634546426
0.002014190890363927
0.0023498893720912484
0.0023498893720912484
0.003356984817273213
0.0050354772259098195
0.0050354772259098195
0.0050354772259098195
0.006378271152819104
0.006042572671091783
0.0050354772259098195
0.004699778744182497
0.003692683299000534
0.003692683299000534
0.0030212863355458916
0.0023498893720912484
0.0010070954451819635
0.0006713969634546426
-0.0003356984817273213
-0.0003356984817273213
-0.0003356984817273213
0.0010070954451819635
0.002014190890363927
0.0023498893720912484
0.0023498893720912484
0.003692683299000534
0.0050354772259098195
0.005706874189364461
0.006378271152819104
0.006378271152819104
0.006378271152819104
0.005706874189364461
0.004364080262455177
0.003692683299000534
0.003692683299000534
0.003356984817273213
0.0023498893720912484
-0.0003356984817273213
-0.0003356984817273213
-0.0003356984817273213
0.0006713969634546426
0.0003356984817273213
0.0010070954451819635
0.0010070954451819635
0.0016784924086366065
0.0023498893720912484
0.0030212863355458916
0.0050354772259098195
0.0050354772259098195
0.006042572671091783
0.005706874189364461
0.005706874189364461
0.0050354772259098195
0.0050354772259098195
0.003692683299000534
0.0030212863355458916
0.0023498893720912484
0.0016784924086366065
0.0003356984817273213
-0.0003356984817273213
-0.0010070954451819635
-0.0003356984817273213
-0.0003356984817273213
0.0010070954451819635
0.0016784924086366065
0.0023498893720912484
0.0030212863355458916
0.0050354772259098195
0.006378271152819104
0.006378271152819104
0.006378271152819104
0.006378271152819104
0.006378271152819104
0.006378271152819104
0.0050354772259098195
0.0050354772259098195
0.0050354772259098195
0.003692683299000534
0.0023498893720912484
0.0010070954451819635
-0.0010070954451819635
-0.002014190890363927
-0.0023498893720912484
-0.0010070954451819635
-0.0003356984817273213
0.0003356984817273213
0.0023498893720912484
0.0023498893720912484
0.003692683299000534
0.0050354772259098195
0.006378271152819104
0.007385366598001068
0.006378271152819104
0.006378271152819104
0.006378271152819104
0.005706874189364461
0.005706874189364461
0.0050354772259098195
0.0030212863355458916
0.0023498893720912484
0.0010070954451819635
-0.0016784924086366065
-0.0030212863355458916
-0.0023498893720912484
-0.0016784924086366065
-0.0010070954451819635
-0.0003356984817273213
0.0016784924086366065
0.0023498893720912484
0.003692683299000534
0.0050354772259098195
0.006378271152819104
0.007721065079728388
0.007721065079728388
0.007049668116273747
0.006378271152819104
0.006378271152819104
0.005706874189364461
0.0050354772259098195
0.003692683299000534
0.0016784924086366065
0.0010070954451819635
-0.0003356984817273213
-0.0016784924086366065
-0.0016784924086366065
-0.0003356984817273213
0.0006713969634546426
0.002014190890363927
0.0023498893720912484
0.0030212863355458916
0.004364080262455177
0.005706874189364461
0.007049668116273747
0.006378271152819104
0.007721065079728388
0.007385366598001068
0.006378271152819104
0.005706874189364461
0.0050354772259098195
0.003692683299000534
0.0023498893720912484
0.0023498893720912484
0.0016784924086366065
0.0010070954451819635
0.0003356984817273213
-0.0003356984817273213
-0.0003356984817273213
0.0010070954451819635
0.002014190890363927
0.0023498893720912484
0.003692683299000534
0.0050354772259098195
0.005706874189364461
0.006378271152819104
0.007049668116273747
0.007049668116273747
0.006378271152819104
0.0050354772259098195
0.0050354772259098195
0.004699778744182497
0.0030212863355458916
0.0023498893720912484
0.0016784924086366065
0.0003356984817273213
-0.0006713969634546426
-0.0016784924086366065
-0.0010070954451819635
-0.0003356984817273213
0.0016784924086366065
0.0023498893720912484
0.0023498893720912484
0.003692683299000534
0.004699778744182497
0.006378271152819104
0.006378271152819104
0.007721065079728388
0.007721065079728388
0.006378271152819104
0.0050354772259098195
0.004364080262455177
0.004364080262455177
0.003692683299000534
0.0023498893720912484
0.0023498893720912484
0.0010070954451819635
-0.0003356984817273213
-0.0003356984817273213
-0.0003356984817273213
-0.0003356984817273213
0.0010070954451819635
0.0016784924086366065
0.0023498893720912484
0.003692683299000534
0.004699778744182497
0.0050354772259098195
0.005706874189364461
0.006378271152819104
0.007721065079728388
0.006378271152819104
0.0050354772259098195
0.004364080262455177
0.003692683299000534
0.003692683299000534
0.0023498893720912484
0.0010070954451819635
0.0006713969634546426
-0.0003356984817273213
-0.0010070954451819635
-0.0003356984817273213
-0.0003356984817273213
0.0010070954451819635
0.0016784924086366065
0.0016784924086366065
0.0023498893720912484
0.003692683299000534
0.0050354772259098195
0.0050354772259098195
0.0050354772259098195
0.005706874189364461
0.0050354772259098195
0.003692683299000534
0.003692683299000534
0.003692683299000534
0.0023498893720912484
0.0016784924086366065
0.0016784924086366065
0.0003356984817273213
-0.0003356984817273213
-0.0010070954451819635
-0.0006713969634546426
-0.0010070954451819635
-0.0003356984817273213
0.0010070954451819635
0.0010070954451819635
0.0023498893720912484
0.003692683299000534
0.004364080262455177
0.004364080262455177
0.0050354772259098195
0.006378271152819104
0.006378271152819104
0.005706874189364461
0.0050354772259098195
0.003692683299000534
0.004364080262455177
0.0023498893720912484
0.0023498893720912484
0.0010070954451819635
-0.0003356984817273213
0.0003356984817273213
-0.0003356984817273213
0.0003356984817273213
0.0010070954451819635
0.0016784924086366065
0.0023498893720912484
0.0016784924086366065
0.003356984817273213
0.004364080262455177
0.0050354772259098195
0.0050354772259098195
0.005706874189364461
0.0050354772259098195
0.004364080262455177
0.004364080262455177
0.004364080262455177
0.0030212863355458916
0.0023498893720912484
0.0023498893720912484
0.0010070954451819635
0.0003356984817273213
0.0006713969634546426
0.0003356984817273213
0.0006713969634546426
0.0016784924086366065
0.0023498893720912484
0.0023498893720912484
0.003356984817273213
0.004364080262455177
0.0050354772259098195
0.0050354772259098195
0.005706874189364461
0.006378271152819104
0.006378271152819104
0.0050354772259098195
0.003692683299000534
0.003692683299000534
0.003692683299000534
0.0030212863355458916
0.0023498893720912484
0.0023498893720912484
0.0010070954451819635
0.0010070954451819635
-0.0003356984817273213
0.0006713969634546426
0.0016784924086366065
0.0023498893720912484
0.0023498893720912484
0.0030212863355458916
0.003692683299000534
0.0050354772259098195
0.005706874189364461
0.005706874189364461
0.006378271152819104
0.006378271152819104
0.0050354772259098195
0.003692683299000534
0.003692683299000534
0.003692683299000534
0.003692683299000534
0.0023498893720912484
0.0010070954451819635
0.0010070954451819635
0.0010070954451819635
0.0003356984817273213
0.0010070954451819635
0.0010070954451819635
0.0023498893720912484
0.002014190890363927
0.0023498893720912484
0.003692683299000534
0.004028381780727854
0.0050354772259098195
0.0050354772259098195
0.0050354772259098195
0.0050354772259098195
0.004699778744182497
0.004699778744182497
0.003692683299000534
0.003692683299000534
0.003692683299000534
0.0023498893720912484
0.0010070954451819635
0.0006713969634546426
0.0006713969634546426
0.0006713969634546426
0.0006713969634546426
0.0023498893720912484
0.0023498893720912484
0.0023498893720912484
0.0023498893720912484
0.003356984817273213
0.004364080262455177
0.0050354772259098195
0.0050354772259098195
0.006042572671091783
0.006042572671091783
0.0050354772259098195
0.004364080262455177
0.0050354772259098195
0.003692683299000534
0.0023498893720912484
0.0023498893720912484
0.0010070954451819635
0.0010070954451819635
0.0006713969634546426
0.0003356984817273213
-0.0003356984817273213
0.0010070954451819635
0.0023498893720912484
0.0016784924086366065
0.0023498893720912484
0.003356984817273213
0.004364080262455177
0.0050354772259098195
0.0050354772259098195
0.005706874189364461
0.0050354772259098195
0.004364080262455177
0.003692683299000534
0.004364080262455177
0.003692683299000534
0.0030212863355458916
0.0030212863355458916
0.0016784924086366065
0.0006713969634546426
0.0010070954451819635
0.0003356984817273213
0.0003356984817273213
0.0010070954451819635
0.002014190890363927
0.0023498893720912484
0.0023498893720912484
0.0030212863355458916
0.003692683299000534
0.0050354772259098195
0.005706874189364461
0.006042572671091783
0.006378271152819104
0.0050354772259098195
0.0050354772259098195
0.004364080262455177
0.003692683299000534
0.0030212863355458916
0.0023498893720912484
0.0016784924086366065
0.0010070954451819635
0.0010070954451819635
0.0010070954451819635
0.0010070954451819635
0.0023498893720912484
0.0023498893720912484
0.0023498893720912484
0.0030212863355458916
0.0030212863355458916
0.003692683299000534
0.004364080262455177
0.0050354772259098195
0.0050354772259098195
0.004364080262455177
0.003692683299000534
0.004364080262455177
0.003692683299000534
0.003692683299000534
0.0030212863355458916
0.0023498893720912484
0.0016784924086366065
0.0016784924086366065
-0.0003356984817273213
0.0006713969634546426
-0.0003356984817273213
0.0016784924086366065
0.002014190890363927
0.0010070954451819635
0.0023498893720912484
0.0030212863355458916
0.003692683299000534
0.0050354772259098195
0.0050354772259098195
0.0050354772259098195
0.0050354772259098195
0.0050354772259098195
0.004364080262455177
0.004364080262455177
0.003692683299000534
0.0023498893720912484
0.002014190890363927
0.0023498893720912484
0.0016784924086366065
0.0010070954451819635
0.0010070954451819635
0.0016784924086366065
0.0023498893720912484
0.0030212863355458916
0.0023498893720912484
0.003356984817273213
0.003692683299000534
0.004364080262455177
0.0050354772259098195
0.0050354772259098195
0.006042572671091783
0.0050354772259098195
0.004364080262455177
0.004364080262455177
0.004364080262455177
0.003692683299000534
0.0023498893720912484
0.0023498893720912484
0.002014190890363927
0.0010070954451819635
0.0010070954451819635
0.0010070954451819635
0.0016784924086366065
0.0023498893720912484
0.0023498893720912484
0.003356984817273213
0.0030212863355458916
0.003692683299000534
0.004364080262455177
0.0050354772259098195
0.005706874189364461
0.006378271152819104
0.005706874189364461
0.0050354772259098195
0.004364080262455177
0.004028381780727854
0.003692683299000534
0.003692683299000534
0.0030212863355458916
0.0023498893720912484
0.0010070954451819635
0.0010070954451819635
0.0013427939269092851
0.0010070954451819635
0.0010070954451819635
0.0023498893720912484
0.0023498893720912484
0.003356984817273213
0.003692683299000534
0.003692683299000534
0.0050354772259098195
0.0050354772259098195
0.005706874189364461
0.0050354772259098195
0.004364080262455177
0.003692683299000534
0.003692683299000534
0.0030212863355458916
0.0016784924086366065
0.0010070954451819635
0.0013427939269092851
-0.0003356984817273213
-0.0003356984817273213
-0.0003356984817273213
0.0006713969634546426
0.0016784924086366065
0.0010070954451819635
0.0016784924086366065
0.0023498893720912484
0.003692683299000534
0.003692683299000534
0.0050354772259098195
0.0050354772259098195
0.0050354772259098195
0.0050354772259098195
0.004364080262455177
0.004364080262455177
0.003692683299000534
0.003692683299000534
0.0023498893720912484
0.0023498893720912484
0.0023498893720912484
0.0010070954451819635
0.0003356984817273213
-0.0003356984817273213
0.0010070954451819635
0.0023498893720912484
0.0023498893720912484
0.0023498893720912484
0.0030212863355458916
0.004364080262455177
0.004699778744182497
0.0050354772259098195
0.005706874189364461
0.006042572671091783
0.0050354772259098195
0.0050354772259098195
0.0050354772259098195
0.004364080262455177
0.004364080262455177
0.003692683299000534
0.0023498893720912484
0.0023498893720912484
0.0016784924086366065
0.0006713969634546426
0.0010070954451819635
0.0016784924086366065
0.0016784924086366065
0.0016784924086366065
0.002014190890363927
0.0023498893720912484
0.003356984817273213
0.004028381780727854
0.004699778744182497
0.0050354772259098195
0.0050354772259098195
0.006042572671091783
0.004364080262455177
0.004364080262455177
0.004364080262455177
0.003692683299000534
0.0023498893720912484
0.0023498893720912484
0.0023498893720912484
0.0010070954451819635
0.0010070954451819635
0.0010070954451819635
0.0016784924086366065
0.0023498893720912484
0.002014190890363927
0.0023498893720912484
0.0023498893720912484
0.003692683299000534
0.004699778744182497
0.005706874189364461
0.006378271152819104
0.006378271152819104
0.0050354772259098195
0.004364080262455177
0.004699778744182497
0.004364080262455177
0.004364080262455177
0.003356984817273213
0.0023498893720912484
0.0023498893720912484
0.0010070954451819635
0.0003356984817273213
-0.0003356984817273213
0.0010070954451819635
0.002014190890363927
0.0023498893720912484
0.0023498893720912484
0.0030212863355458916
0.003692683299000534
0.004699778744182497
0.004364080262455177
0.0050354772259098195
0.005706874189364461
0.006042572671091783
0.004364080262455177
0.004364080262455177
0.004364080262455177
0.004364080262455177
0.003692683299000534
0.0023498893720912484
0.0016784924086366065
0.0010070954451819635
0.0006713969634546426
0.0010070954451819635
0.0010070954451819635
0.0016784924086366065
0.0023498893720912484
0.0016784924086366065
0.0016784924086366065
0.0030212863355458916
0.003692683299000534
0.003692683299000534
0.003692683299000534
0.0050354772259098195
0.0050354772259098195
0.004364080262455177
0.004364080262455177
0.003692683299000534
0.003692683299000534
0.003692683299000534
0.0030212863355458916
0.0023498893720912484
0.0023498893720912484
0.0016784924086366065
0.0016784924086366065
0.0023498893720912484
0.0023498893720912484
0.0023498893720912484
0.0023498893720912484
0.0023498893720912484
0.003692683299000534
0.0050354772259098195
0.005706874189364461
0.006378271152819104
0.006042572671091783
0.006378271152819104
0.006378271152819104
0.0050354772259098195
0.004699778744182497
0.004364080262455177
0.0030212863355458916
0.0010070954451819635
-0.0003356984817273213
-0.0016784924086366065
-0.002014190890363927
-0.0030212863355458916
-0.0016784924086366065
-0.0010070954451819635
-0.0003356984817273213
-0.0003356984817273213
0.0016784924086366065
0.003356984817273213
0.0050354772259098195
0.006378271152819104
0.007385366598001068
0.007721065079728388
0.007721065079728388
0.006378271152819104
0.005706874189364461
0.004364080262455177
0.004364080262455177
0.0030212863355458916
0.0016784924086366065
0.0010070954451819635
-0.0006713969634546426
-0.0016784924086366065
-0.0016784924086366065
-0.0010070954451819635
-0.0003356984817273213
0.0010070954451819635
0.0023498893720912484
0.0023498893720912484
0.004699778744182497
0.006042572671091783
0.007385366598001068
0.007721065079728388
0.008392462043183033
0.007721065079728388
0.007049668116273747
0.0050354772259098195
0.0050354772259098195
0.003692683299000534
0.0023498893720912484
0.0016784924086366065
-0.0003356984817273213
-0.0010070954451819635
-0.0016784924086366065
-0.0016784924086366065
-0.0016784924086366065
-0.0003356984817273213
0.0010070954451819635
0.002014190890363927
0.0023498893720912484
0.0050354772259098195
0.006378271152819104
0.007385366598001068
0.007721065079728388
0.008392462043183033
0.007721065079728388
0.007049668116273747
0.006042572671091783
0.004699778744182497
0.003692683299000534
0.0030212863355458916
0.0010070954451819635
-0.0010070954451819635
-0.0016784924086366065
-0.0030212863355458916
-0.0023498893720912484
-0.0016784924086366065
-0.0003356984817273213
0.0006713969634546426
0.0003356984817273213
0.0023498893720912484
0.004364080262455177
0.0050354772259098195
0.007049668116273747
0.007721065079728388
0.008392462043183033
0.007721065079728388
0.007049668116273747
0.0050354772259098195
0.0050354772259098195
0.004364080262455177
0.0030212863355458916
0.0016784924086366065
-0.0003356984817273213
-0.0016784924086366065
-0.0016784924086366065
-0.0016784924086366065
-0.0010070954451819635
-0.0003356984817273213
0.0010070954451819635
0.0016784924086366065
0.002014190890363927
0.004364080262455177
0.006378271152819104
0.007721065079728388
0.007721065079728388
0.007721065079728388
0.007721065079728388
0.007049668116273747
0.006042572671091783
0.0050354772259098195
0.003692683299000534
0.0030212863355458916
0.0016784924086366065
0.0003356984817273213
-0.0010070954451819635
-0.0016784924086366065
-0.002014190890363927
-0.0006713969634546426
-0.0003356984817273213
0.0010070954451819635
0.0016784924086366065
0.003356984817273213
0.004364080262455177
0.0050354772259098195
0.007721065079728388
0.007721065079728388
0.008392462043183033
0.007721065079728388
0.007049668116273747
0.006042572671091783
0.0050354772259098195
0.003692683299000534
0.0030212863355458916
0.0016784924086366065
0.0003356984817273213
-0.0006713969634546426
-0.0016784924086366065
-0.0016784924086366065
-0.0010070954451819635
-0.0003356984817273213
0.0010070954451819635
0.0016784924086366065
0.0023498893720912484
0.003692683299000534
0.0050354772259098195
0.007721065079728388
0.008728160524910353
0.008728160524910353
0.007721065079728388
0.006378271152819104
0.0050354772259098195
0.0050354772259098195
0.004364080262455177
0.0023498893720912484
0.0016784924086366065
-0.0003356984817273213
-0.0010070954451819635
-0.0016784924086366065
-0.0010070954451819635
-0.0003356984817273213
0.0003356984817273213
0.0010070954451819635
0.0023498893720912484
0.003692683299000534
0.0050354772259098195
0.006378271152819104
0.007721065079728388
0.007721065079728388
0.009063859006637675
0.008392462043183033
0.006378271152819104
0.005706874189364461
0.0050354772259098195
0.003692683299000534
0.0023498893720912484
0.0010070954451819635
-0.0010070954451819635
-0.0030212863355458916
-0.0030212863355458916
-0.0030212863355458916
-0.0016784924086366065
-0.0006713969634546426
0.0003356984817273213
0.0016784924086366065
0.0023498893720912484
0.004364080262455177
0.006042572671091783
0.007721065079728388
0.007721065079728388
0.007721065079728388
0.007049668116273747
0.006378271152819104
0.006378271152819104
0.0050354772259098195
0.004364080262455177
0.0030212863355458916
0.002014190890363927
0.0003356984817273213
-0.0010070954451819635
-0.0016784924086366065
-0.0023498893720912484
-0.0003356984817273213
-0.0003356984817273213
0.0003356984817273213
0.002014190890363927
0.0023498893720912484
0.004364080262455177
0.006378271152819104
0.007049668116273747
0.007721065079728388
0.007049668116273747
0.007721065079728388
0.006378271152819104
0.006378271152819104
0.0050354772259098195
0.003692683299000534
0.0023498893720912484
0.002014190890363927
-0.0003356984817273213
-0.0016784924086366065
-0.0023498893720912484
-0.0030212863355458916
-0.0006713969634546426
0.0010070954451819635
0.0010070954451819635
0.0016784924086366065
0.003692683299000534
0.004699778744182497
0.005706874189364461
0.006378271152819104
0.007385366598001068
0.008392462043183033
0.007721065079728388
0.006378271152819104
0.0050354772259098195
0.0050354772259098195
0.004364080262455177
0.0023498893720912484
0.0010070954451819635
-0.0003356984817273213
-0.0010070954451819635
-0.0023498893720912484
-0.0016784924086366065
-0.0010070954451819635
0.0006713969634546426
0.0006713969634546426
0.0010070954451819635
0.0030212863355458916
0.004364080262455177
0.006378271152819104
0.006378271152819104
0.007721065079728388
0.008392462043183033
0.006378271152819104
0.0050354772259098195
0.005706874189364461
0.0050354772259098195
0.004364080262455177
0.0023498893720912484
0.0016784924086366065
-0.0003356984817273213
-0.0016784924086366065
-0.0023498893720912484
-0.0016784924086366065
-0.0010070954451819635
-0.0003356984817273213
0.0010070954451819635
0.002014190890363927
0.0030212863355458916
0.004364080262455177
0.005706874189364461
0.006378271152819104
0.007721065079728388
0.007721065079728388
0.007721065079728388
0.006378271152819104
0.0050354772259098195
0.0050354772259098195
0.003692683299000534
0.0023498893720912484
0.0006713969634546426
-0.0003356984817273213
-0.0010070954451819635
-0.0023498893720912484
-0.0016784924086366065
-0.0003356984817273213
0.0003356984817273213
0.0010070954451819635
0.0023498893720912484
0.003356984817273213
0.0050354772259098195
0.006378271152819104
0.007721065079728388
0.007721065079728388
0.008392462043183033
0.007721065079728388
0.006378271152819104
0.0050354772259098195
0.0050354772259098195
0.0050354772259098195
0.0023498893720912484
0.0010070954451819635
-0.0003356984817273213
-0.0010070954451819635
-0.0016784924086366065
-0.0010070954451819635
-0.0006713969634546426
0.0010070954451819635
0.0010070954451819635
0.0023498893720912484
0.0030212863355458916
0.004699778744182497
0.005706874189364461
0.007721065079728388
0.007721065079728388
0.008728160524910353
0.007385366598001068
0.006378271152819104
0.005706874189364461
0.0050354772259098195
0.004364080262455177
0.0023498893720912484
0.0010070954451819635
-0.0010070954451819635
-0.0016784924086366065
-0.0023498893720912484
-0.0030212863355458916
-0.0016784924086366065
-0.0003356984817273213
0.0010070954451819635
0.0010070954451819635
0.0023498893720912484
0.004364080262455177
0.005706874189364461
0.007049668116273747
0.007721065079728388
0.007721065079728388
0.007721065079728388
0.007049668116273747
0.005706874189364461
0.004364080262455177
0.003692683299000534
0.002014190890363927
0.0003356984817273213
-0.0003356984817273213
-0.0016784924086366065
-0.0023498893720912484
-0.0016784924086366065
-0.0010070954451819635
0.0003356984817273213
0.0010070954451819635
0.0016784924086366065
0.003692683299000534
0.004699778744182497
0.006378271152819104
0.007049668116273747
0.008728160524910353
0.007721065079728388
0.007721065079728388
0.007049668116273747
0.005706874189364461
0.004699778744182497
0.004028381780727854
0.0023498893720912484
0.0010070954451819635
-0.0006713969634546426
-0.0016784924086366065
-0.002014190890363927
-0.0023498893720912484
-0.0006713969634546426
-0.0003356984817273213
0.0010070954451819635
0.0023498893720912484
0.0030212863355458916
-0.0003356984817273213
-0.0003356984817273213
-0.0003356984817273213
0.0006713969634546426
0.002014190890363927
0.0023498893720912484
0.0023498893720912484
0.0023498893720912484
0.003356984817273213
0.0050354772259098195
0.004364080262455177
0.0050354772259098195
0.0050354772259098195
0.0050354772259098195
0.0050354772259098195
0.003692683299000534
0.003692683299000534
0.003356984817273213
0.0030212863355458916
0.0023498893720912484
0.0023498893720912484
0.0016784924086366065
0.0010070954451819635
0.0016784924086366065
0.0016784924086366065
0.002014190890363927
0.0023498893720912484
0.0030212863355458916
0.003692683299000534
0.0030212863355458916
0.0050354772259098195
0.0050354772259098195
0.0050354772259098195
0.0050354772259098195
0.003692683299000534
0.006378271152819104
0.007385366598001068
0.007721065079728388
0.007721065079728388
0.007721065079728388
0.006378271152819104
0.004699778744182497
0.004364080262455177
0.004364080262455177
0.003692683299000534
0.0023498893720912484
0.0016784924086366065
0.0010070954451819635
0.0010070954451819635
0.0006713969634546426
0.0010070954451819635
0.0016784924086366065
0.002014190890363927
0.0016784924086366065
0.002014190890363927
0.0030212863355458916
0.003692683299000534
0.004028381780727854
0.004699778744182497
0.0050354772259098195
0.004364080262455177
0.003692683299000534
0.0023498893720912484
0.0023498893720912484
0.0023498893720912484
0.0023498893720912484
0.0016784924086366065
0.0010070954451819635
0.0050354772259098195
0.004699778744182497
0.004699778744182497
0.004364080262455177
0.004364080262455177
0.003692683299000534
0.0030212863355458916
0.0023498893720912484
0.0016784924086366065
0.0016784924086366065
0.002014190890363927
0.0023498893720912484
0.0023498893720912484
0.0030212863355458916
0.0023498893720912484
0.004364080262455177
0.004364080262455177
0.004699778744182497
0.005706874189364461
0.005706874189364461
0.006378271152819104
0.005706874189364461
0.0050354772259098195
0.004364080262455177
0.004364080262455177
0.0030212863355458916
0.0030212863355458916
0.0030212863355458916
0.0023498893720912484
0.0016784924086366065
0.0010070954451819635
0.0010070954451819635
0.0010070954451819635
0.0016784924086366065
0.0023498893720912484
0.0023498893720912484
0.0006713969634546426
0.0003356984817273213
0.0003356984817273213
0.0003356984817273213
0.0010070954451819635
0.002014190890363927
0.0023498893720912484
0.0030212863355458916
0.003692683299000534
0.003692683299000534
0.0050354772259098195
0.005706874189364461
0.006378271152819104
0.0050354772259098195
0.0050354772259098195
0.0050354772259098195
0.004699778744182497
0.004028381780727854
0.003356984817273213
0.0023498893720912484
0.002014190890363927
0.0010070954451819635
0.0003356984817273213
-0.0003356984817273213
0.0006713969634546426
0.0010070954451819635
0.0010070954451819635
0.0016784924086366065
0.0023498893720912484
0.003692683299000534
0.003692683299000534
0.004699778744182497
0.0023498893720912484
0.0023498893720912484
0.0023498893720912484
0.003692683299000534
0.003692683299000534
0.0050354772259098195
0.0053711757076371405
0.0050354772259098195
0.0050354772259098195
0.0050354772259098195
0.004364080262455177
0.004364080262455177
0.003692683299000534
0.003692683299000534
0.0023498893720912484
0.0016784924086366065
0.0010070954451819635
0.0010070954451819635
0.0006713969634546426
0.0010070954451819635
0.0016784924086366065
0.0016784924086366065
0.002014190890363927
0.003356984817273213
0.003692683299000534
0.004699778744182497
0.006378271152819104
0.006378271152819104
0.005706874189364461
0.0050354772259098195
0.0050354772259098195
0.0050354772259098195
0.004364080262455177
0.0030212863355458916
0.004364080262455177
0.0050354772259098195
0.006042572671091783
0.0050354772259098195
0.004364080262455177
0.004364080262455177
0.004364080262455177
0.004364080262455177
0.0030212863355458916
0.0023498893720912484
0.0010070954451819635
-0.0003356984817273213
-0.0003356984817273213
-0.0003356984817273213
0.0013427939269092851
0.0016784924086366065
0.0023498893720912484
0.0023498893720912484
0.0030212863355458916
0.003692683299000534
0.0050354772259098195
0.006042572671091783
0.006378271152819104
0.006378271152819104
0.0050354772259098195
0.004364080262455177
0.004699778744182497
0.004364080262455177
0.003692683299000534
0.0023498893720912484
0.0023498893720912484
0.0010070954451819635
0.0006713969634546426
-0.0003356984817273213
-0.0003356984817273213
0.0010070954451819635
0.002014190890363927
0.0023498893720912484
0.0016784924086366065
0.0030212863355458916
0.004364080262455177
0.0050354772259098195
0.006378271152819104
0.006378271152819104
0.007385366598001068
0.006042572671091783
0.004699778744182497
0.004364080262455177
0.0050354772259098195
0.003692683299000534
0.0030212863355458916
0.0016784924086366065
0.0010070954451819635
0.0006713969634546426
-0.0003356984817273213
-0.0003356984817273213
0.0010070954451819635
0.0023498893720912484
0.0023498893720912484
0.002014190890363927
0.0023498893720912484
0.0050354772259098195
0.0050354772259098195
0.005706874189364461
0.006042572671091783
0.006378271152819104
0.005706874189364461
0.004364080262455177
0.004364080262455177
0.004364080262455177
0.003692683299000534
0.0023498893720912484
0.0016784924086366065
0.0010070954451819635
0.0003356984817273213
-0.0003356984817273213
0.0003356984817273213
0.0010070954451819635
0.0023498893720912484
0.002014190890363927
0.002014190890363927
0.003692683299000534
0.003692683299000534
0.004699778744182497
0.006378271152819104
0.006378271152819104
0.007049668116273747
0.006378271152819104
0.0050354772259098195
0.0050354772259098195
0.0050354772259098195
0.0050354772259098195
0.0023498893720912484
0.0016784924086366065
0.0016784924086366065
0.0010070954451819635
-0.0003356984817273213
-0.0003356984817273213
0.0010070954451819635
0.0016784924086366065
0.0023498893720912484
0.002014190890363927
0.0030212863355458916
0.003692683299000534
0.0050354772259098195
0.005706874189364461
0.006378271152819104
0.006378271152819104
0.0050354772259098195
0.004699778744182497
0.004364080262455177
0.003692683299000534
0.0030212863355458916
0.0016784924086366065
0.0016784924086366065
0.0010070954451819635
-0.0003356984817273213
-0.0010070954451819635
-0.0003356984817273213
0.0003356984817273213
0.0016784924086366065
0.0023498893720912484
0.0023498893720912484
0.003356984817273213
0.0050354772259098195
0.0050354772259098195
0.0050354772259098195
0.006378271152819104
0.006378271152819104
0.0050354772259098195
0.003692683299000534
0.003692683299000534
0.004364080262455177
0.003692683299000534
0.0023498893720912484
0.0016784924086366065
0.0010070954451819635
0.0003356984817273213
-0.0003356984817273213
-0.0003356984817273213
0.0010070954451819635
0.0016784924086366065
0.0023498893720912484
0.0023498893720912484
0.0023498893720912484
0.003692683299000534
0.004364080262455177
0.0050354772259098195
0.006042572671091783
0.005706874189364461
0.005706874189364461
0.0050354772259098195
0.003692683299000534
0.003692683299000534
0.003692683299000534
0.0023498893720912484
0.0023498893720912484
0.0010070954451819635
0.0010070954451819635
0.0003356984817273213
-0.0003356984817273213
0.0010070954451819635
0.0023498893720912484
0.002014190890363927
0.002014190890363927
0.0030212863355458916
0.003692683299000534
0.0050354772259098195
0.0050354772259098195
0.005706874189364461
0.005706874189364461
0.0050354772259098195
0.004364080262455177
0.004364080262455177
0.003692683299000534
0.0030212863355458916
0.0023498893720912484
0.0023498893720912484
0.0016784924086366065
0.0010070954451819635
-0.0003356984817273213
-0.0003356984817273213
0.0010070954451819635
0.0010070954451819635
0.0016784924086366065
0.0023498893720912484
0.003356984817273213
0.004364080262455177
0.005706874189364461
0.006378271152819104
0.006378271152819104
0.006378271152819104
0.0050354772259098195
0.0050354772259098195
0.003692683299000534
0.003692683299000534
0.003692683299000534
0.0023498893720912484
0.0013427939269092851
0.0010070954451819635
-0.0003356984817273213
-0.0003356984817273213
-0.0003356984817273213
0.0010070954451819635
0.0010070954451819635
0.0010070954451819635
0.0016784924086366065
0.0023498893720912484
0.0030212863355458916
0.003692683299000534
0.0050354772259098195
0.0050354772259098195
0.005706874189364461
0.006378271152819104
0.0050354772259098195
0.003692683299000534
0.003692683299000534
0.0030212863355458916
0.0023498893720912484
0.0016784924086366065
0.0010070954451819635
0.0003356984817273213
0.0003356984817273213
0.0003356984817273213
0.0010070954451819635
0.002014190890363927
0.0023498893720912484
0.0030212863355458916
0.003692683299000534
0.004028381780727854
0.005706874189364461
0.006378271152819104
0.006713969634546426
0.007721065079728388
0.007049668116273747
0.006042572671091783
0.0050354772259098195
0.0050354772259098195
0.003692683299000534
0.0023498893720912484
0.0010070954451819635
-0.0016784924086366065
-0.002014190890363927
-0.0016784924086366065
-0.0016784924086366065
-0.0006713969634546426
-0.0003356984817273213
0.0016784924086366065
0.0023498893720912484
0.004699778744182497
0.006378271152819104
0.008728160524910353
0.009735255970092317
0.010406652933546959
0.010406652933546959
0.009063859006637675
0.007721065079728388
0.006378271152819104
0.0050354772259098195
0.004364080262455177
0.0023498893720912484
-0.0003356984817273213
-0.0023498893720912484
-0.003692683299000534
-0.003692683299000534
-0.0030212863355458916
-0.0030212863355458916
-0.0010070954451819635
0.0010070954451819635
0.0010070954451819635
0.0023498893720912484
0.005706874189364461
0.006378271152819104
0.008392462043183033
0.010406652933546959
0.009735255970092317
0.008728160524910353
0.007721065079728388
0.006378271152819104
0.0050354772259098195
0.0023498893720912484
0.0010070954451819635
-0.0003356984817273213
-0.0016784924086366065
-0.0030212863355458916
-0.003692683299000534
-0.0030212863355458916
-0.0016784924086366065
-0.0003356984817273213
0.0003356984817273213
0.003356984817273213
0.004364080262455177
0.006378271152819104
0.007721065079728388
0.009735255970092317
0.011078049897001601
0.010070954451819639
0.009063859006637675
0.007721065079728388
0.006378271152819104
0.0050354772259098195
0.003692683299000534
0.0016784924086366065
-0.0003356984817273213
-0.0016784924086366065
-0.003692683299000534
-0.003692683299000534
-0.0030212863355458916
-0.0016784924086366065
-0.0003356984817273213
0.0010070954451819635
0.002014190890363927
0.004364080262455177
0.006378271152819104
0.007721065079728388
0.009063859006637675
0.009735255970092317
0.010070954451819639
0.008392462043183033
0.007049668116273747
0.006378271152819104
0.004364080262455177
0.0030212863355458916
0.0010070954451819635
-0.0003356984817273213
-0.0016784924086366065
-0.003356984817273213
-0.003692683299000534
-0.0030212863355458916
-0.0016784924086366065
-0.0003356984817273213
0.0010070954451819635
0.0023498893720912484
0.004364080262455177
0.006378271152819104
0.007721065079728388
0.009735255970092317
0.010406652933546959
0.009735255970092317
0.008392462043183033
0.007049668116273747
0.005706874189364461
0.004364080262455177
0.0023498893720912484
0.0010070954451819635
-0.0003356984817273213
-0.0030212863355458916
-0.004364080262455177
-0.004364080262455177
-0.0030212863355458916
-0.0010070954451819635
-0.0003356984817273213
0.0016784924086366065
0.0023498893720912484
0.0050354772259098195
0.006378271152819104
0.007385366598001068
0.009063859006637675
0.011078049897001601
0.010406652933546959
0.008392462043183033
0.007049668116273747
0.006378271152819104
0.0050354772259098195
0.0030212863355458916
0.0010070954451819635
-0.0003356984817273213
-0.0023498893720912484
-0.003356984817273213
-0.003692683299000534
-0.0030212863355458916
-0.0023498893720912484
-0.0003356984817273213
0.0003356984817273213
0.0023498893720912484
0.003692683299000534
0.006378271152819104
0.007721065079728388
0.009735255970092317
0.010406652933546959
0.009735255970092317
0.008392462043183033
0.006378271152819104
0.005706874189364461
0.0050354772259098195
0.003692683299000534
0.0010070954451819635
-0.0003356984817273213
-0.0016784924086366065
-0.003356984817273213
-0.003692683299000534
-0.0030212863355458916
-0.0010070954451819635
-0.0003356984817273213
0.0010070954451819635
0.0023498893720912484
0.0050354772259098195
0.007049668116273747
0.008392462043183033
0.009735255970092317
0.011078049897001601
0.010406652933546959
0.009063859006637675
0.007721065079728388
0.006378271152819104
0.0050354772259098195
0.003356984817273213
0.0016784924086366065
-0.0003356984817273213
-0.0023498893720912484
-0.0030212863355458916
-0.003692683299000534
-0.0030212863355458916
-0.0016784924086366065
-0.0003356984817273213
0.0016784924086366065
0.0023498893720912484
0.004364080262455177
0.006378271152819104
0.007721065079728388
0.009063859006637675
0.010406652933546959
0.009735255970092317
0.007721065079728388
0.006378271152819104
0.0050354772259098195
0.004364080262455177
0.0023498893720912484
0.0010070954451819635
-0.0010070954451819635
-0.0030212863355458916
-0.004028381780727854
-0.004364080262455177
-0.003692683299000534
-0.0016784924086366065
-0.0003356984817273213
0.0010070954451819635
0.0023498893720912484
0.004699778744182497
0.007049668116273747
0.008728160524910353
0.009735255970092317
0.010406652933546959
0.010406652933546959
0.007721065079728388
0.007049668116273747
0.006042572671091783
0.0050354772259098195
0.003356984817273213
0.0010070954451819635
-0.0006713969634546426
-0.0016784924086366065
-0.003692683299000534
-0.004364080262455177
-0.003692683299000534
-0.0016784924086366065
0.0003356984817273213
0.0010070954451819635
0.0023498893720912484
0.003692683299000534
0.006378271152819104
0.008392462043183033
0.009063859006637675
0.010406652933546959
0.010070954451819639
0.008392462043183033
0.006378271152819104
0.0050354772259098195
0.003692683299000534
0.0030212863355458916
0.0010070954451819635
-0.0010070954451819635
-0.0016784924086366065
-0.0030212863355458916
-0.003692683299000534
-0.0030212863355458916
-0.0016784924086366065
0.0003356984817273213
0.0010070954451819635
0.0023498893720912484
0.0050354772259098195
0.006378271152819104
0.009063859006637675
0.009735255970092317
0.010406652933546959
0.010406652933546959
0.009063859006637675
0.007049668116273747
0.006378271152819104
0.0050354772259098195
0.0023498893720912484
0.0010070954451819635
-0.0010070954451819635
-0.0030212863355458916
-0.003356984817273213
-0.0030212863355458916
-0.0030212863355458916
-0.0016784924086366065
0.0010070954451819635
0.002014190890363927
0.0023498893720912484
0.004364080262455177
0.006378271152819104
0.007721065079728388
0.009063859006637675
0.009063859006637675
0.009735255970092317
0.007721065079728388
0.006378271152819104
0.005706874189364461
0.003692683299000534
0.0023498893720912484
0.0010070954451819635
-0.0016784924086366065
-0.0030212863355458916
-0.003692683299000534
-0.003356984817273213
-0.003692683299000534
-0.0010070954451819635
0.0006713969634546426
0.0010070954451819635
0.0023498893720912484
0.004364080262455177
0.007049668116273747
0.008728160524910353
0.009063859006637675
0.009735255970092317
0.008392462043183033
0.007385366598001068
0.005706874189364461
0.0050354772259098195
0.004364080262455177
0.0023498893720912484
0.0010070954451819635
-0.0003356984817273213
-0.0016784924086366065
-0.0030212863355458916
-0.0030212863355458916
-0.0030212863355458916
-0.0016784924086366065
0.0003356984817273213
0.0010070954451819635
0.0023498893720912484
0.003692683299000534
0.005706874189364461
0.007385366598001068
0.008728160524910353
0.009063859006637675
0.008392462043183033
0.007049668116273747
0.005706874189364461
0.0050354772259098195
0.004364080262455177
0.003692683299000534
0.0016784924086366065
-0.0003356984817273213
-0.0016784924086366065
-0.0030212863355458916
-0.0030212863355458916
-0.002014190890363927
-0.0010070954451819635
-0.0003356984817273213
0.0013427939269092851
0.0023498893720912484
0.004364080262455177
0.005706874189364461
0.007385366598001068
0.008728160524910353
0.009063859006637675
0.009063859006637675
0.007721065079728388
0.006378271152819104
0.0050354772259098195
0.004364080262455177
0.0030212863355458916
0.0010070954451819635
-0.0003356984817273213
-0.0016784924086366065
-0.0030212863355458916
-0.0030212863355458916
-0.0016784924086366065
-0.0003356984817273213
0.0006713969634546426
0.0016784924086366065
0.0023498893720912484
0.004028381780727854
0.006042572671091783
0.007385366598001068
0.008728160524910353
0.008728160524910353
0.007721065079728388
0.007049668116273747
0.006378271152819104
0.0050354772259098195
0.004364080262455177
0.0023498893720912484
0.0006713969634546426
-0.0003356984817273213
-0.0016784924086366065
-0.0030212863355458916
-0.0030212863355458916
-0.0016784924086366065
-0.0010070954451819635
-0.0003356984817273213
0.0016784924086366065
0.0030212863355458916
0.004699778744182497
0.006378271152819104
0.008392462043183033
0.009063859006637675
0.009063859006637675
0.009063859006637675
0.007385366598001068
0.006378271152819104
0.0050354772259098195
0.004364080262455177
0.003692683299000534
0.0016784924086366065
-0.0003356984817273213
-0.0023498893720912484
-0.0030212863355458916
-0.0023498893720912484
-0.0016784924086366065
-0.0010070954451819635
0.0003356984817273213
0.0023498893720912484
0.0023498893720912484
0.004364080262455177
0.006378271152819104
0.007049668116273747
0.009063859006637675
0.009735255970092317
0.008728160524910353
0.007049668116273747
0.006378271152819104
0.005706874189364461
0.004364080262455177
0.003356984817273213
0.0010070954451819635
-0.0003356984817273213
-0.0016784924086366065
-0.0030212863355458916
-0.0030212863355458916
-0.002014190890363927
-0.0010070954451819635
-0.0003356984817273213
0.0010070954451819635
0.0023498893720912484
0.004028381780727854
0.0050354772259098195
0.007721065079728388
0.007721065079728388
0.009063859006637675
0.008392462043183033
0.007385366598001068
0.006378271152819104
0.0050354772259098195
0.003692683299000534
0.0023498893720912484
0.0010070954451819635
-0.0003356984817273213
-0.0023498893720912484
-0.003356984817273213
-0.003356984817273213
-0.0016784924086366065
-0.0010070954451819635
-0.0003356984817273213
0.0003356984817273213
0.0016784924086366065
0.003692683299000534
0.006042572671091783
0.006378271152819104
0.008728160524910353
0.009063859006637675
0.008392462043183033
0.007049668116273747
0.0050354772259098195
0.0050354772259098195
0.003692683299000534
0.0023498893720912484
0.0010070954451819635
-0.0003356984817273213
-0.0016784924086366065
-0.003692683299000534
-0.003692683299000534
-0.0016784924086366065
-0.0003356984817273213
0.0006713969634546426
0.0010070954451819635
0.0023498893720912484
0.0050354772259098195
0.006378271152819104
0.007721065079728388
0.009735255970092317
0.010406652933546959
0.009735255970092317
0.007721065079728388
0.007049668116273747
0.005706874189364461
0.0050354772259098195
0.0030212863355458916
0.0010070954451819635
-0.0003356984817273213
-0.0016784924086366065
-0.0030212863355458916
-0.0030212863355458916
-0.0016784924086366065
-0.0010070954451819635
0.0003356984817273213
0.0010070954451819635
0.0030212863355458916
0.0050354772259098195
0.006378271152819104
0.008392462043183033
0.009063859006637675
0.009063859006637675
0.009063859006637675
0.007721065079728388
0.007385366598001068
0.006042572671091783
0.0050354772259098195
0.0030212863355458916
0.0010070954451819635
-0.0003356984817273213
-0.0013427939269092851
-0.0030212863355458916
-0.004364080262455177
-0.0016784924086366065
-0.0003356984817273213
-0.0003356984817273213
0.0010070954451819635
0.0023498893720912484
0.004364080262455177
0.006042572671091783
0.007721065079728388
0.008392462043183033
0.009735255970092317
0.009063859006637675
0.007049668116273747
0.006378271152819104
0.005706874189364461
0.004364080262455177
0.0023498893720912484
0.0010070954451819635
-0.0003356984817273213
-0.0023498893720912484
-0.0030212863355458916
-0.003692683299000534
-0.0030212863355458916
-0.0016784924086366065
-0.0003356984817273213
0.0010070954451819635
0.0023498893720912484
0.004364080262455177
0.006378271152819104
0.007385366598001068
0.008392462043183033
0.009735255970092317
0.009063859006637675
0.007049668116273747
0.006042572671091783
0.0050354772259098195
0.004364080262455177
0.0023498893720912484
-0.0003356984817273213
-0.0016784924086366065
-0.0023498893720912484
-0.003356984817273213
-0.003692683299000534
-0.0023498893720912484
-0.0010070954451819635
-0.0003356984817273213
0.0006713969634546426
0.0016784924086366065
0.004364080262455177
0.005706874189364461
0.007721065079728388
0.008728160524910353
0.009063859006637675
0.008392462043183033
0.007721065079728388
0.006378271152819104
0.0050354772259098195
0.004364080262455177
0.0030212863355458916
0.0006713969634546426
-0.0006713969634546426
-0.0016784924086366065
-0.0030212863355458916
-0.0030212863355458916
-0.0016784924086366065
-0.0003356984817273213
0.0006713969634546426
0.0003356984817273213
0.0023498893720912484
0.0050354772259098195
0.006378271152819104
0.007385366598001068
0.009063859006637675
0.008728160524910353
0.007721065079728388
0.006378271152819104
0.006042572671091783
0.0050354772259098195
0.003692683299000534
0.0030212863355458916
0.0003356984817273213
-0.0006713969634546426
-0.0016784924086366065
-0.002014190890363927
-0.0030212863355458916
-0.0023498893720912484
-0.0003356984817273213
0.0003356984817273213
0.0003356984817273213
0.0016784924086366065
0.003692683299000534
0.006378271152819104
0.007721065079728388
0.009063859006637675
0.009735255970092317
0.007721065079728388
0.007721065079728388
0.005706874189364461
0.0050354772259098195
0.003692683299000534
0.0023498893720912484
0.0003356984817273213
-0.0016784924086366065
-0.0030212863355458916
-0.004364080262455177
-0.004364080262455177
-0.0030212863355458916
-0.0010070954451819635
0.0010070954451819635
0.0016784924086366065
0.0030212863355458916
0.0050354772259098195
0.007721065079728388
0.009063859006637675
0.010070954451819639
0.010070954451819639
0.010406652933546959
0.009063859006637675
0.007049668116273747
0.005706874189364461
0.0050354772259098195
0.003692683299000534
0.0010070954451819635
-0.0010070954451819635
-0.0030212863355458916
-0.003692683299000534
-0.0030212863355458916
-0.0030212863355458916
-0.0016784924086366065
-0.0003356984817273213
0.0010070954451819635
0.0023498893720912484
0.004364080262455177
0.006378271152819104
0.007721065079728388
0.007721065079728388
0.009063859006637675
0.009063859006637675
0.008392462043183033
0.006378271152819104
0.0050354772259098195
0.004364080262455177
0.0023498893720912484
0.0010070954451819635
-0.0010070954451819635
-0.0030212863355458916
-0.003356984817273213
-0.0030212863355458916
-0.0030212863355458916
-0.0003356984817273213
0.0003356984817273213
0.0023498893720912484
0.0030212863355458916
0.004364080262455177
0.007049668116273747
0.008728160524910353
0.009063859006637675
0.010406652933546959
0.008392462043183033
0.007721065079728388
0.007049668116273747
0.006042572671091783
0.004699778744182497
0.0030212863355458916
0.0016784924086366065
-0.0003356984817273213
-0.0030212863355458916
-0.0030212863355458916
-0.0030212863355458916
-0.0030212863355458916
-0.0010070954451819635
0.0003356984817273213
0.0016784924086366065
0.0030212863355458916
0.0050354772259098195
0.007049668116273747
0.008392462043183033
0.009735255970092317
0.010406652933546959
0.009399557488364994
0.007721065079728388
0.006378271152819104
0.0050354772259098195
0.0050354772259098195
0.0023498893720912484
0.0003356984817273213
-0.0016784924086366065
-0.003356984817273213
-0.004364080262455177
-0.004364080262455177
-0.0030212863355458916
-0.0016784924086366065
-0.0003356984817273213
0.0010070954451819635
0.0023498893720912484
0.0050354772259098195
0.007049668116273747
0.009063859006637675
0.009063859006637675
0.009735255970092317
0.009735255970092317
0.007721065079728388
0.006378271152819104
0.0050354772259098195
0.004364080262455177
0.0023498893720912484
-0.0003356984817273213
-0.0016784924086366065
-0.0030212863355458916
-0.004364080262455177
-0.003692683299000534
-0.0030212863355458916
-0.0016784924086366065
-0.0003356984817273213
0.0010070954451819635
0.0030212863355458916
0.004364080262455177
0.006378271152819104
0.008728160524910353
0.009735255970092317
0.009735255970092317
0.009063859006637675
0.007721065079728388
0.006378271152819104
0.0050354772259098195
0.0050354772259098195
0.0023498893720912484
-0.0003356984817273213
-0.0016784924086366065
-0.0030212863355458916
-0.004364080262455177
-0.003692683299000534
-0.0023498893720912484
-0.0016784924086366065
-0.0003356984817273213
0.0016784924086366065
0.003692683299000534
0.0050354772259098195
0.007049668116273747
0.009063859006637675
0.009063859006637675
0.010070954451819639
0.009063859006637675
0.007049668116273747
0.007049668116273747
0.0050354772259098195
0.004364080262455177
0.0023498893720912484
0.0010070954451819635
-0.0010070954451819635
-0.002014190890363927
-0.003692683299000534
-0.003692683299000534
-0.0023498893720912484
-0.0006713969634546426
-0.0003356984817273213
0.0010070954451819635
0.0030212863355458916
0.0050354772259098195
0.006378271152819104
0.007721065079728388
0.009399557488364994
0.009735255970092317
0.009063859006637675
0.007385366598001068
0.005706874189364461
0.0050354772259098195
0.003692683299000534
0.0016784924086366065
0.0006713969634546426
0.0003356984817273213
-0.0010070954451819635
-0.002014190890363927
-0.0023498893720912484
-0.0016784924086366065
-0.0003356984817273213
-0.0003356984817273213
0.0010070954451819635
0.0010070954451819635
0.0023498893720912484
0.003692683299000534
0.004364080262455177
0.0050354772259098195
0.006378271152819104
0.0050354772259098195
0.0050354772259098195
0.0050354772259098195
0.004364080262455177
0.004364080262455177
0.0030212863355458916
0.002014190890363927
0.0010070954451819635
0.0010070954451819635
-0.0003356984817273213
-0.0003356984817273213
0.0010070954451819635
0.0016784924086366065
0.002014190890363927
0.0023498893720912484
0.003692683299000534
0.003692683299000534
0.004364080262455177
0.0050354772259098195
0.006378271152819104
0.007385366598001068
0.006378271152819104
0.0050354772259098195
0.0050354772259098195
0.004364080262455177
0.003692683299000534
0.0030212863355458916
0.0010070954451819635
0.0016784924086366065
0.0003356984817273213
0.0003356984817273213
0.0006713969634546426
0.0016784924086366065
0.0013427939269092851
0.0023498893720912484
0.0023498893720912484
0.003692683299000534
0.004364080262455177
0.004364080262455177
0.006042572671091783
0.006378271152819104
0.006378271152819104
0.0050354772259098195
0.0050354772259098195
0.004364080262455177
0.004364080262455177
0.003692683299000534
0.0030212863355458916
0.0016784924086366065
0.0013427939269092851
0.0010070954451819635
-0.0003356984817273213
-0.0003356984817273213
0.0010070954451819635
0.0010070954451819635
0.0016784924086366065
0.0023498893720912484
0.0023498893720912484
0.003692683299000534
0.003692683299000534
0.0050354772259098195
0.005706874189364461
0.005706874189364461
0.0050354772259098195
0.003692683299000534
0.004364080262455177
0.003692683299000534
0.003692683299000534
0.0023498893720912484
0.0023498893720912484
0.0016784924086366065
0.0010070954451819635
-0.0003356984817273213
-0.0003356984817273213
0.0010070954451819635
0.0010070954451819635
0.0016784924086366065
0.0023498893720912484
0.0030212863355458916
0.0050354772259098195
0.0050354772259098195
0.005706874189364461
0.006378271152819104
0.006378271152819104
0.0050354772259098195
0.0050354772259098195
0.0050354772259098195
0.004364080262455177
0.003692683299000534
0.0030212863355458916
0.0023498893720912484
0.0016784924086366065
0.0010070954451819635
-0.0003356984817273213
-0.0003356984817273213
-0.0003356984817273213
0.0010070954451819635
0.0016784924086366065
0.0016784924086366065
0.0023498893720912484
0.0023498893720912484
0.003692683299000534
0.0050354772259098195
0.005706874189364461
0.006042572671091783
0.0050354772259098195
0.004364080262455177
0.004364080262455177
0.003692683299000534
0.003692683299000534
0.0023498893720912484
0.0016784924086366065
0.0010070954451819635
0.0003356984817273213
-0.0010070954451819635
-0.0003356984817273213
0.0010070954451819635
0.0016784924086366065
0.0023498893720912484
0.0023498893720912484
0.0030212863355458916
0.004028381780727854
0.0050354772259098195
0.0050354772259098195
0.005706874189364461
0.006378271152819104
0.006378271152819104
0.005706874189364461
0.0050354772259098195
0.003692683299000534
0.0030212863355458916
0.0023498893720912484
0.0023498893720912484
0.0016784924086366065
0.0010070954451819635
-0.0003356984817273213
0.0006713969634546426
0.0010070954451819635
0.0023498893720912484
0.0023498893720912484
0.0023498893720912484
0.0023498893720912484
0.003692683299000534
0.0050354772259098195
0.006042572671091783
0.006378271152819104
0.006378271152819104
0.006378271152819104
0.0050354772259098195
0.003692683299000534
0.003692683299000534
0.003692683299000534
0.0023498893720912484
0.0016784924086366065
0.0010070954451819635
0.0006713969634546426
-0.0003356984817273213
-0.0003356984817273213
-0.0003356984817273213
0.002014190890363927
0.0023498893720912484
0.002014190890363927
0.003692683299000534
0.004364080262455177
0.006042572671091783
0.006378271152819104
0.006378271152819104
0.006378271152819104
0.007049668116273747
0.005706874189364461
0.004699778744182497
0.003356984817273213
0.0030212863355458916
0.0030212863355458916
0.002014190890363927
0.0003356984817273213
-0.0003356984817273213
-0.0010070954451819635
-0.0010070954451819635
-0.0003356984817273213
0.0010070954451819635
0.002014190890363927
0.0023498893720912484
0.0023498893720912484
0.004364080262455177
0.006378271152819104
0.006378271152819104
0.007721065079728388
0.007721065079728388
0.007049668116273747
0.006378271152819104
0.0050354772259098195
0.004364080262455177
0.0050354772259098195
0.003692683299000534
0.002014190890363927
0.0010070954451819635
-0.0003356984817273213
-0.0003356984817273213
-0.0003356984817273213
0.0003356984817273213
0.0010070954451819635
0.0016784924086366065
0.0023498893720912484
0.0023498893720912484
0.0030212863355458916
0.0050354772259098195
0.006378271152819104
0.006378271152819104
0.006378271152819104
0.006378271152819104
0.006378271152819104
0.0050354772259098195
0.004364080262455177
0.003692683299000534
0.0030212863355458916
0.0016784924086366065
0.0010070954451819635
-0.0003356984817273213
-0.0006713969634546426
-0.0003356984817273213
0.0003356984817273213
0.0016784924086366065
0.0023498893720912484
0.0023498893720912484
0.0023498893720912484
0.004028381780727854
0.0050354772259098195
0.006378271152819104
0.007049668116273747
0.006378271152819104
0.006378271152819104
0.0050354772259098195
0.003692683299000534
0.003692683299000534
0.0023498893720912484
0.0023498893720912484
0.0010070954451819635
0.0010070954451819635
-0.0003356984817273213
-0.0003356984817273213
-0.0006713969634546426
-0.0003356984817273213
0.0006713969634546426
0.0023498893720912484
0.0023498893720912484
0.0023498893720912484
0.004364080262455177
0.0050354772259098195
0.006378271152819104
0.007721065079728388
0.007049668116273747
0.006378271152819104
0.006042572671091783
0.005706874189364461
0.0050354772259098195
0.003692683299000534
0.003356984817273213
0.002014190890363927
0.0010070954451819635
0.0003356984817273213
-0.0003356984817273213
0.0006713969634546426
-0.0003356984817273213
0.0016784924086366065
0.0016784924086366065
0.0023498893720912484
0.003692683299000534
0.004699778744182497
0.0050354772259098195
0.006378271152819104
0.006378271152819104
0.006378271152819104
0.0050354772259098195
0.0050354772259098195
0.004028381780727854
0.003692683299000534
0.0030212863355458916
0.0023498893720912484
0.0010070954451819635
-0.0003356984817273213
-0.0003356984817273213
-0.0016784924086366065
-0.0006713969634546426
-0.0003356984817273213
0.0003356984817273213
0.0010070954451819635
0.0023498893720912484
0.0023498893720912484
0.003692683299000534
0.0050354772259098195
0.006042572671091783
0.006378271152819104
0.006378271152819104
0.006378271152819104
0.005706874189364461
0.0050354772259098195
0.004364080262455177
0.003692683299000534
0.0023498893720912484
0.0016784924086366065
0.0010070954451819635
-0.0003356984817273213
-0.0003356984817273213
0.0003356984817273213
0.0003356984817273213
0.0016784924086366065
0.0010070954451819635
0.0023498893720912484
0.003356984817273213
0.003692683299000534
0.0050354772259098195
0.005706874189364461
0.006378271152819104
0.006378271152819104
0.006378271152819104
0.0050354772259098195
0.004364080262455177
0.0050354772259098195
0.003692683299000534
0.0023498893720912484
0.0023498893720912484
0.0016784924086366065
-0.0003356984817273213
-0.0003356984817273213
0.0003356984817273213
0.0010070954451819635
0.0016784924086366065
0.0023498893720912484
0.0030212863355458916
0.003692683299000534
0.003692683299000534
0.005706874189364461
0.006378271152819104
0.007721065079728388
0.007721065079728388
0.006378271152819104
0.0050354772259098195
0.0050354772259098195
0.0050354772259098195
0.003692683299000534
0.0023498893720912484
0.0023498893720912484
0.0010070954451819635
-0.0003356984817273213
-0.0003356984817273213
0.0003356984817273213
0.0006713969634546426
0.0010070954451819635
0.0016784924086366065
0.0023498893720912484
0.003692683299000534
0.004364080262455177
0.004364080262455177
0.0050354772259098195
0.006378271152819104
0.006713969634546426
0.0050354772259098195
0.004699778744182497
0.004364080262455177
0.003692683299000534
0.003692683299000534
0.0023498893720912484
0.0023498893720912484
0.0010070954451819635
-0.0003356984817273213
-0.0003356984817273213
-0.0003356984817273213
0.0010070954451819635
0.0016784924086366065
0.0016784924086366065
0.0023498893720912484
0.003692683299000534
0.005706874189364461
0.007385366598001068
0.009063859006637675
0.009063859006637675
0.009735255970092317
0.007721065079728388
0.006378271152819104
0.0050354772259098195
0.0050354772259098195
0.0023498893720912484
0.0003356984817273213
-0.0016784924086366065
-0.003692683299000534
-0.0050354772259098195
-0.005706874189364461
-0.006042572671091783
-0.004364080262455177
-0.0016784924086366065
-0.0010070954451819635
0.0010070954451819635
0.0023498893720912484
0.0050354772259098195
0.007385366598001068
0.009063859006637675
0.011078049897001601
0.011413748378728923
0.010070954451819639
0.007721065079728388
0.007049668116273747
0.006378271152819104
0.003692683299000534
0.0023498893720912484
-0.0003356984817273213
-0.002014190890363927
-0.003692683299000534
-0.0050354772259098195
-0.004364080262455177
-0.0030212863355458916
-0.0010070954451819635
-0.0003356984817273213
0.002014190890363927
0.003692683299000534
0.006042572671091783
0.007721065079728388
0.009063859006637675
0.010406652933546959
0.011749446860456245
0.010406652933546959
0.008728160524910353
0.007721065079728388
0.006378271152819104
0.004028381780727854
0.002014190890363927
-0.0003356984817273213
-0.002014190890363927
-0.003356984817273213
-0.004699778744182497
-0.0030212863355458916
-0.0023498893720912484
-0.0003356984817273213
-0.0003356984817273213
0.0010070954451819635
0.004364080262455177
0.006378271152819104
0.009063859006637675
0.010406652933546959
0.011078049897001601
0.011413748378728923
0.010070954451819639
0.007721065079728388
0.006378271152819104
0.005706874189364461
0.003692683299000534
0.0010070954451819635
-0.0010070954451819635
-0.0023498893720912484
-0.004364080262455177
-0.005706874189364461
-0.005706874189364461
-0.004364080262455177
-0.002014190890363927
-0.0003356984817273213
0.0016784924086366065
0.0030212863355458916
0.006042572671091783
0.007721065079728388
0.009063859006637675
0.010406652933546959
0.011413748378728923
0.009735255970092317
0.007721065079728388
0.007049668116273747
0.006042572671091783
0.004364080262455177
0.0010070954451819635
-0.0010070954451819635
-0.003692683299000534
-0.004364080262455177
-0.005706874189364461
-0.005706874189364461
-0.003356984817273213
-0.0016784924086366065
-0.0003356984817273213
0.0010070954451819635
0.003692683299000534
0.006378271152819104
0.007721065079728388
0.009735255970092317
0.011078049897001601
0.011413748378728923
0.009735255970092317
0.007721065079728388
0.007721065079728388
0.006378271152819104
0.0050354772259098195
0.0023498893720912484
0.0010070954451819635
-0.0003356984817273213
-0.0003356984817273213
-0.0010070954451819635
-0.0016784924086366065
-0.0003356984817273213
0.0010070954451819635
0.0016784924086366065
0.0010070954451819635
0.0023498893720912484
0.004364080262455177
0.004364080262455177
0.005706874189364461
0.005706874189364461
0.006378271152819104
0.006378271152819104
0.0050354772259098195
0.004364080262455177
0.004364080262455177
0.004364080262455177
0.003692683299000534
0.0023498893720912484
0.0010070954451819635
0.0010070954451819635
0.0003356984817273213
-0.0003356984817273213
0.0010070954451819635
0.0016784924086366065
0.0023498893720912484
0.0023498893720912484
0.003692683299000534
0.004699778744182497
0.006042572671091783
0.007049668116273747
0.006378271152819104
0.007385366598001068
0.007049668116273747
0.0050354772259098195
0.004364080262455177
0.0050354772259098195
0.003692683299000534
0.0030212863355458916
0.002014190890363927
0.0010070954451819635
0.0006713969634546426
0.0003356984817273213
-0.0003356984817273213
0.0010070954451819635
0.0010070954451819635
0.0023498893720912484
0.003356984817273213
0.0023498893720912484
0.003692683299000534
0.0050354772259098195
0.005706874189364461
0.006378271152819104
0.006042572671091783
0.006378271152819104
0.006042572671091783
0.004699778744182497
0.004364080262455177
0.004028381780727854
0.0030212863355458916
0.0016784924086366065
0.0006713969634546426
-0.0003356984817273213
-0.0003356984817273213
0.0010070954451819635
0.0010070954451819635
0.0016784924086366065
0.0023498893720912484
0.0023498893720912484
0.003692683299000534
0.004364080262455177
0.005706874189364461
0.006713969634546426
0.006378271152819104
0.007049668116273747
0.006378271152819104
0.0050354772259098195
0.0050354772259098195
0.0050354772259098195
0.003692683299000534
0.003692683299000534
0.0016784924086366065
0.0003356984817273213
-0.0003356984817273213
-0.0003356984817273213
-0.0003356984817273213
0.0006713969634546426
0.0010070954451819635
0.002014190890363927
0.0023498893720912484
0.0030212863355458916
0.004364080262455177
0.0050354772259098195
0.006378271152819104
0.006378271152819104
0.006378271152819104
0.0050354772259098195
0.0050354772259098195
0.004364080262455177
0.004364080262455177
0.0030212863355458916
0.0030212863355458916
0.0016784924086366065
0.0003356984817273213
-0.0006713969634546426
-0.0003356984817273213
-0.0003356984817273213
0.0010070954451819635
0.0010070954451819635
0.0023498893720912484
0.003356984817273213
0.0030212863355458916
0.004699778744182497
0.0050354772259098195
0.006042572671091783
0.007049668116273747
0.007049668116273747
0.006378271152819104
0.005706874189364461
0.0050354772259098195
0.004364080262455177
0.003692683299000534
0.0030212863355458916
0.0023498893720912484
0.0010070954451819635
0.0003356984817273213
-0.0003356984817273213
-0.0003356984817273213
0.0010070954451819635
0.0023498893720912484
0.0023498893720912484
0.003356984817273213
0.003692683299000534
0.003692683299000534
0.0050354772259098195
0.006378271152819104
0.007385366598001068
0.006378271152819104
0.005706874189364461
0.005706874189364461
0.004699778744182497
0.004364080262455177
0.0030212863355458916
0.0030212863355458916
0.0023498893720912484
-0.0003356984817273213
-0.0003356984817273213
-0.0003356984817273213
-0.0006713969634546426
-0.0003356984817273213
0.0010070954451819635
0.0023498893720912484
0.0030212863355458916
0.003692683299000534
0.004364080262455177
0.004364080262455177
0.005706874189364461
0.007049668116273747
0.006713969634546426
0.006042572671091783
0.0053711757076371405
0.0050354772259098195
0.004364080262455177
0.003692683299000534
0.0023498893720912484
0.0023498893720912484
0.0010070954451819635
-0.0003356984817273213
-0.0003356984817273213
-0.0003356984817273213
0.0010070954451819635
0.0010070954451819635
0.0023498893720912484
0.0030212863355458916
0.003692683299000534
0.004364080262455177
0.0050354772259098195
0.006042572671091783
0.006378271152819104
0.006378271152819104
0.0050354772259098195
0.003692683299000534
0.003692683299000534
0.003692683299000534
0.0023498893720912484
0.0010070954451819635
0.0010070954451819635
-0.0003356984817273213
-0.0003356984817273213
-0.0016784924086366065
-0.0010070954451819635
0.0003356984817273213
0.0010070954451819635
0.0016784924086366065
0.0023498893720912484
0.0030212863355458916
0.004364080262455177
0.0050354772259098195
0.006378271152819104
0.007721065079728388
0.007049668116273747
0.007049668116273747
0.0050354772259098195
0.0050354772259098195
0.0050354772259098195
0.003692683299000534
0.003356984817273213
0.0023498893720912484
0.0016784924086366065
0.0003356984817273213
-0.0003356984817273213
0.0010070954451819635
0.0016784924086366065
0.002014190890363927
0.0023498893720912484
0.0030212863355458916
0.004364080262455177
0.0050354772259098195
0.005706874189364461
0.006378271152819104
0.007049668116273747
0.007385366598001068
0.006378271152819104
0.0050354772259098195
0.0050354772259098195
0.004364080262455177
0.003692683299000534
0.0023498893720912484
0.0016784924086366065
0.0010070954451819635
-0.0003356984817273213
-0.0003356984817273213
-0.0003356984817273213
0.0003356984817273213
0.0016784924086366065
0.0023498893720912484
0.0023498893720912484
0.003692683299000534
0.0050354772259098195
0.006378271152819104
0.006378271152819104
0.006378271152819104
0.006378271152819104
0.0050354772259098195
0.0050354772259098195
0.0050354772259098195
0.004028381780727854
0.003692683299000534
0.003692683299000534
0.0023498893720912484
0.0010070954451819635
0.0006713969634546426
-0.0003356984817273213
-0.0003356984817273213
0.0010070954451819635
0.0016784924086366065
0.0023498893720912484
0.0023498893720912484
0.0023498893720912484
0.003692683299000534
0.004364080262455177
0.006042572671091783
0.006042572671091783
0.006378271152819104
0.0050354772259098195
0.004364080262455177
0.003692683299000534
0.003692683299000534
0.003692683299000534
0.0030212863355458916
0.0016784924086366065
0.0003356984817273213
0.0003356984817273213
-0.0003356984817273213
-0.0003356984817273213
0.0010070954451819635
0.0016784924086366065
0.0016784924086366065
0.002014190890363927
0.0030212863355458916
0.004364080262455177
0.0050354772259098195
0.006378271152819104
0.006378271152819104
0.006378271152819104
0.006378271152819104
0.0050354772259098195
0.004364080262455177
0.004364080262455177
0.003692683299000534
0.0023498893720912484
0.0010070954451819635
0.0010070954451819635
0.0003356984817273213
-0.0003356984817273213
-0.0003356984817273213
-0.0003356984817273213
0.0016784924086366065
0.0023498893720912484
0.0023498893720912484
0.003692683299000534
0.003692683299000534
0.005706874189364461
0.006378271152819104
0.006042572671091783
0.006378271152819104
0.006378271152819104
0.004364080262455177
0.004364080262455177
0.004364080262455177
0.003692683299000534
0.0023498893720912484
0.0023498893720912484
0.0010070954451819635
0.0010070954451819635
-0.0003356984817273213
0.0003356984817273213
0.0010070954451819635
0.0016784924086366065
0.0023498893720912484
0.002014190890363927
0.003692683299000534
0.0050354772259098195
0.0050354772259098195
0.006042572671091783
0.006378271152819104
0.007049668116273747
0.0053711757076371405
0.004364080262455177
0.004364080262455177
0.004699778744182497
0.003692683299000534
0.002014190890363927
0.0016784924086366065
0.0003356984817273213
-0.0003356984817273213
-0.0006713969634546426
-0.0016784924086366065
-0.0003356984817273213
0.0016784924086366065
0.0016784924086366065
0.0023498893720912484
0.003692683299000534
0.0050354772259098195
0.006042572671091783
0.006378271152819104
0.006378271152819104
0.006378271152819104
0.005706874189364461
0.0050354772259098195
0.0050354772259098195
0.003692683299000534
0.003692683299000534
0.0023498893720912484
0.002014190890363927
0.0016784924086366065
-0.0003356984817273213
0.0003356984817273213
0.0003356984817273213
0.0010070954451819635
0.0023498893720912484
0.0023498893720912484
0.0023498893720912484
0.003692683299000534
0.0050354772259098195
0.005706874189364461
0.006042572671091783
0.007049668116273747
0.007385366598001068
0.006378271152819104
0.006378271152819104
0.004699778744182497
0.003692683299000534
0.004364080262455177
0.0030212863355458916
0.0016784924086366065
0.0003356984817273213
-0.0003356984817273213
-0.0003356984817273213
-0.0003356984817273213
0.0006713969634546426
0.0010070954451819635
0.0016784924086366065
0.0023498893720912484
0.0030212863355458916
0.004364080262455177
0.0050354772259098195
0.006378271152819104
0.007049668116273747
0.006378271152819104
0.006042572671091783
0.0050354772259098195
0.0050354772259098195
0.003692683299000534
0.003692683299000534
0.0030212863355458916
0.002014190890363927
0.0006713969634546426
0.0003356984817273213
-0.0010070954451819635
-0.0003356984817273213
0.0006713969634546426
0.0016784924086366065
0.0023498893720912484
0.0023498893720912484
0.003692683299000534
0.004364080262455177
0.005706874189364461
0.006378271152819104
0.006378271152819104
0.007049668116273747
0.005706874189364461
0.0050354772259098195
0.004364080262455177
0.004699778744182497
0.003692683299000534
0.0023498893720912484
0.0016784924086366065
0.0003356984817273213
0.0010070954451819635
-0.0003356984817273213
-0.0003356984817273213
0.0010070954451819635
0.0010070954451819635
0.0023498893720912484
0.0023498893720912484
0.003692683299000534
0.0050354772259098195
0.0050354772259098195
0.007049668116273747
0.007049668116273747
0.006378271152819104
0.006378271152819104
0.005706874189364461
0.0050354772259098195
0.004364080262455177
0.0030212863355458916
0.0023498893720912484
0.0023498893720912484
0.0010070954451819635
0.0003356984817273213
0.0003356984817273213
0.0003356984817273213
0.0010070954451819635
0.0010070954451819635
0.0016784924086366065
0.0023498893720912484
0.003692683299000534
0.004364080262455177
0.0050354772259098195
0.006042572671091783
0.006378271152819104
0.006378271152819104
0.0050354772259098195
0.0050354772259098195
0.004699778744182497
0.003692683299000534
0.003356984817273213
0.0023498893720912484
0.002014190890363927
0.0003356984817273213
-0.0003356984817273213
-0.0003356984817273213
-0.0003356984817273213
0.0010070954451819635
0.0010070954451819635
0.0023498893720912484
0.0023498893720912484
0.003692683299000534
0.0050354772259098195
0.0050354772259098195
0.006378271152819104
0.006378271152819104
0.006378271152819104
0.005706874189364461
0.0050354772259098195
0.0050354772259098195
0.004364080262455177
0.003692683299000534
0.003356984817273213
0.0023498893720912484
0.0016784924086366065
0.0010070954451819635
-0.0003356984817273213
0.0003356984817273213
0.002014190890363927
0.002014190890363927
0.0023498893720912484
0.0023498893720912484
0.003692683299000534
0.0050354772259098195
0.006042572671091783
0.007049668116273747
0.007049668116273747
0.006378271152819104
0.0050354772259098195
0.004699778744182497
0.004364080262455177
0.003356984817273213
0.0023498893720912484
0.0023498893720912484
0.0010070954451819635
-0.0003356984817273213
-0.0003356984817273213
-0.0010070954451819635
-0.0003356984817273213
0.0010070954451819635
0.0016784924086366065
0.0016784924086366065
0.0023498893720912484
0.0023498893720912484
0.004028381780727854
0.0050354772259098195
0.006378271152819104
0.007385366598001068
0.006042572671091783
0.006378271152819104
0.0050354772259098195
0.0050354772259098195
0.004364080262455177
0.0030212863355458916
0.0023498893720912484
0.002014190890363927
0.0010070954451819635
0.0003356984817273213
-0.0003356984817273213
0.0010070954451819635
0.0016784924086366065
0.0023498893720912484
0.0023498893720912484
0.0023498893720912484
0.003692683299000534
0.004364080262455177
0.0050354772259098195
0.006378271152819104
0.007049668116273747
0.007049668116273747
0.006378271152819104
0.0023498893720912484
0.003692683299000534
0.004699778744182497
0.0050354772259098195
0.0050354772259098195
0.007049668116273747
0.006378271152819104
0.0050354772259098195
0.0050354772259098195
0.0050354772259098195
0.004364080262455177
0.003356984817273213
0.0023498893720912484
0.002014190890363927
0.0010070954451819635
-0.0003356984817273213
-0.0003356984817273213
0.0003356984817273213
0.0016784924086366065
0.0010070954451819635
0.0016784924086366065
0.0023498893720912484
0.003692683299000534
0.0050354772259098195
0.0050354772259098195
0.006378271152819104
0.006378271152819104
0.007049668116273747
0.005706874189364461
0.0050354772259098195
0.0050354772259098195
0.0050354772259098195
0.003692683299000534
0.0023498893720912484
0.0050354772259098195
0.004364080262455177
0.004699778744182497
0.003692683299000534
0.0023498893720912484
0.0023498893720912484
0.0010070954451819635
0.0006713969634546426
-0.0003356984817273213
0.0006713969634546426
0.0023498893720912484
0.002014190890363927
0.002014190890363927
0.003356984817273213
0.003692683299000534
0.004699778744182497
0.0050354772259098195
0.006378271152819104
0.006378271152819104
0.006378271152819104
0.006378271152819104
0.0050354772259098195
0.004364080262455177
0.003692683299000534
0.003692683299000534
0.0023498893720912484
0.0010070954451819635
0.0010070954451819635
-0.0003356984817273213
-0.0003356984817273213
0.0010070954451819635
0.0010070954451819635
0.0016784924086366065
0.0023498893720912484
0.0016784924086366065
0.002014190890363927
0.0010070954451819635
0.0003356984817273213
0.0010070954451819635
0.0023498893720912484
0.002014190890363927
0.0023498893720912484
0.0023498893720912484
0.004364080262455177
0.0050354772259098195
0.0050354772259098195
0.006378271152819104
0.007385366598001068
0.006378271152819104
0.006378271152819104
0.0050354772259098195
0.0050354772259098195
0.004364080262455177
0.004364080262455177
0.003692683299000534
0.002014190890363927
0.0010070954451819635
0.0010070954451819635
-0.0003356984817273213
0.0006713969634546426
0.0023498893720912484
0.0023498893720912484
0.002014190890363927
0.0023498893720912484
0.003692683299000534
0.004364080262455177
0.004364080262455177
0.0050354772259098195
0.006042572671091783
0.006378271152819104
0.0050354772259098195
0.004699778744182497
0.004364080262455177
0.003692683299000534
0.003692683299000534
0.0023498893720912484
0.0016784924086366065
0.0010070954451819635
0.0003356984817273213
-0.0003356984817273213
0.0003356984817273213
0.0010070954451819635
0.0023498893720912484
0.0023498893720912484
0.0023498893720912484
0.003692683299000534
0.004364080262455177
0.0050354772259098195
0.0050354772259098195
0.006378271152819104
0.006378271152819104
0.006378271152819104
0.0050354772259098195
0.004364080262455177
0.004364080262455177
0.003692683299000534
0.0030212863355458916
0.0016784924086366065
0.0013427939269092851
-0.0003356984817273213
0.0003356984817273213
0.0003356984817273213
0.0010070954451819635
0.0023498893720912484
0.0023498893720912484
0.0023498893720912484
0.0030212863355458916
0.003692683299000534
0.0050354772259098195
0.0050354772259098195
0.006042572671091783
0.006042572671091783
0.004699778744182497
0.004028381780727854
0.003692683299000534
0.003692683299000534
0.0023498893720912484
0.0023498893720912484
0.0016784924086366065
0.0010070954451819635
0.0003356984817273213
-0.0003356984817273213
0.0010070954451819635
0.0016784924086366065
0.0023498893720912484
0.0023498893720912484
0.0023498893720912484
0.003692683299000534
0.004364080262455177
0.0050354772259098195
0.005706874189364461
0.006378271152819104
0.007049668116273747
0.005706874189364461
0.004364080262455177
0.004364080262455177
0.003692683299000534
0.0050354772259098195
0.0050354772259098195
0.006378271152819104
0.006378271152819104
0.0050354772259098195
0.0050354772259098195
0.0050354772259098195
0.004364080262455177
0.003692683299000534
0.0030212863355458916
0.0023498893720912484
0.0010070954451819635
0.0006713969634546426
-0.0003356984817273213
0.0010070954451819635
0.0023498893720912484
0.0016784924086366065
0.0023498893720912484
0.0030212863355458916
0.0030212863355458916
0.003692683299000534
0.0050354772259098195
0.005706874189364461
0.0050354772259098195
0.006378271152819104
0.006042572671091783
0.004364080262455177
0.003692683299000534
0.003692683299000534
0.003692683299000534
0.003356984817273213
0.0023498893720912484
0.0010070954451819635
0.004364080262455177
0.003692683299000534
0.0023498893720912484
0.0023498893720912484
0.0010070954451819635
0.0003356984817273213
0.0003356984817273213
0.0016784924086366065
0.0010070954451819635
0.0023498893720912484
0.0023498893720912484
0.0023498893720912484
0.0030212863355458916
0.004364080262455177
0.0050354772259098195
