EMG Sensor 0,EMG Sensor 1
0.0,0.0
0.0,0.0
0.0,0.0
0.0,0.0
0.0,0.0
0.0,0.0
0.0,0.0
0.0,0.0
0.0,0.0
0.0,0.0
0.0,0.0
0.0,0.0
0.0,0.0
0.0,0.0
0.0,0.0
0.0,0.0
0.0,0.0
0.0,0.0
0.0,0.0
0.0,0.0
0.0,0.0
0.0,0.0
0.0,0.0
0.0,0.0
0.0,0.0
0.0,0.0
0.0,0.0
0.0,0.0
0.0,0.0
0.0,0.0
0.0,0.0
0.0,0.0
0.0,0.0
0.0,0.0
0.0,0.0
0.0,0.0
0.0,0.0
0.0,0.0
0.0,0.0
0.0,0.0
0.0,0.0
0.0,0.0
0.0,0.0
0.0,0.0
0.0,0.0
0.0,0.0
0.0,0.0
0.0,0.0
0.0,0.0
0.0,0.0
0.0,0.0
0.0,0.0
0.0,0.0
0.0,0.0
0.0,0.0
0.0,0.0
0.0,0.0
0.0,0.0
0.0,0.0
0.0,0.0
0.0,0.0
0.0,0.0
0.0,0.0
0.0,0.0
0.0,0.0
0.0,0.0
0.0,0.0
0.0,0.0
0.0,0.0
0.0,0.0
0.0,0.0
0.0,0.0
0.0,0.0
0.0,0.0
0.0,0.0
0.0,0.0
0.0,0.0
0.0,0.0
0.0,0.0
0.0,0.0
0.0,0.0
0.0,0.0
0.0,0.0
0.0,0.0
0.0,0.0
0.0,0.0
0.0,0.0
0.0,0.0
0.0,0.0
0.0,0.0
0.0,0.0
0.0,0.0
0.0,0.0
0.0,0.0
0.0,0.0
0.0,0.0
0.0,0.0
0.0,0.0
0.0,0.0
0.0,0.0
0.0,0.0
0.0,0.0
0.0,0.0
0.0,0.0
0.0,0.0
0.0,0.0
0.0,0.0
0.0,0.0
0.0,0.0
0.0,0.0
0.0,0.0
0.0,0.0
0.0,0.0
0.0,0.0
0.0,0.0
0.0,0.0
0.0,0.0
0.0,0.0
0.0,0.0
0.0,0.0
0.0,0.0
0.0,0.0
0.0,0.0
0.0,0.0
0.0,0.0
0.0,0.0
0.0,0.0
0.0,0.0
0.0,0.0
0.0,0.0
0.0,0.0
0.0,0.0
0.0,0.0
0.0,0.0
0.0,0.0
0.0,0.0
0.0,0.0
0.0,0.0
0.0,0.0
0.0,0.0
0.0,0.0
0.0,0.0
0.0,0.0
0.0,0.0
0.0,0.0
0.0,0.0
0.0,0.0
0.0,0.0
0.0,0.0
0.0,0.0
0.0,0.0
0.0,0.0
0.0,0.0
0.0,0.0
0.0,0.0
0.0,0.0
0.0,0.0
0.0,0.0
0.0,0.0
0.0,0.0
0.0,0.0
0.0,0.0
0.0,0.0
0.0,0.0
0.0,0.0
0.0,0.0
0.0,0.0
0.0,0.0
0.0,0.0
0.0,0.0
-0.003692683299000534,0.0
-0.0023498893720912484,0.0
0.012756542305638208,0.0
0.004028381780727854,0.0
0.0006713969634546426,0.0
0.008728160524910353,0.0
0.002014190890363927,0.0
0.010406652933546959,0.0
-0.0003356984817273213,0.0
-0.003692683299000534,0.0
0.0003356984817273213,0.0
-0.010070954451819639,0.0
0.0023498893720912484,0.0
-0.013092240787365528,0.0
-0.008392462043183033,0.0
-0.009735255970092317,0.0
-0.012420843823910887,0.0
0.0016784924086366065,0.0
-0.009735255970092317,0.0
0.013092240787365528,0.0
0.007721065079728388,0.0
-0.005706874189364461,0.0
-0.0003356984817273213,0.0
-0.004364080262455177,0.0
0.007721065079728388,0.0
-0.004364080262455177,0.0
-0.0010070954451819635,0.0
0.003692683299000534,0.0
0.0003356984817273213,0.0
0.021149004348821242,0.0
0.009063859006637675,0.0
0.007049668116273747,0.0
-0.0006713969634546426,0.0
-0.012420843823910887,0.0
-0.0050354772259098195,0.0
-0.020477607385366595,0.0
-0.027862973983367664,0.0
-0.07284657053482871,0.0
-0.02584878309300374,0.0
0.02584878309300374,0.0
-0.023834592202639806,0.0
-0.03121995880064088,0.0
0.023163195239185166,0.0
0.041962310215915156,0.0
-0.0010070954451819635,0.0
-0.014099336232547494,0.0
0.0473334859235523,0.0
0.029205767910276948,0.0
-0.012420843823910887,0.0
-0.004364080262455177,0.0
0.03457694361791409,0.0
0.037262531471732654,0.0
0.013092240787365528,0.0
-0.004364080262455177,0.0
-0.0379339284351873,0.0
0.014435034714274816,0.0
0.056061646448462656,0.0
-0.0023498893720912484,0.0
-0.01376363775082017,0.0
0.033569848172732134,0.0
0.05337605859464408,0.0
0.006378271152819104,0.0
-0.011078049897001601,0.0
0.056061646448462656,0.0
0.03994811932555123,0.0
-0.01376363775082017,0.0
-0.011413748378728923,0.0
0.032898451209277486,0.0
0.04129091325246051,0.0
0.01846341649500267,0.0
0.0023498893720912484,0.0
-0.04129091325246051,0.0
-0.0030212863355458916,0.0
0.03054856183718624,0.0
-0.033234149691004806,0.0
-0.04061951628900587,0.0
0.015106431677729458,0.0
0.03927672236209659,0.0
-0.01376363775082017,0.0
-0.03390554665445944,0.0
0.033234149691004806,0.0
0.021149004348821242,0.0
-0.02853437094682231,0.0
-0.021820401312275882,0.0
0.023834592202639806,0.0
0.025177386129549097,0.0
0.007049668116273747,0.0
-0.010070954451819639,0.0
-0.05304036011291676,0.0
-0.007049668116273747,0.0
0.03256275272755016,0.0
-0.029877164873731592,0.0
-0.04061951628900587,0.0
0.0157778286411841,0.0
0.02853437094682231,0.0
-0.020477607385366595,0.0
-0.03054856183718624,0.0
0.037262531471732654,0.0
0.01846341649500267,0.0
-0.027862973983367664,0.0
-0.01846341649500267,0.0
0.023834592202639806,0.0
0.03054856183718624,0.0
0.0010070954451819635,0.0
-0.008392462043183033,0.0
-0.049347676813916226,0.0
-0.0030212863355458916,0.0
0.03994811932555123,0.0
-0.021149004348821242,0.0
-0.02853437094682231,0.0
0.017792019531548024,0.0
0.029205767910276948,0.0
-0.01913481345845731,0.0
-0.029205767910276948,0.0
0.03994811932555123,0.0
0.029205767910276948,0.0
-0.015106431677729458,0.0
-0.005706874189364461,0.0
0.044647898069733724,0.0
0.049347676813916226,0.0
0.017120622568093383,0.0
-0.0023498893720912484,0.0
-0.04599069199664301,0.0
0.006378271152819104,0.0
0.049011978332188906,0.0
-0.017792019531548024,0.0
-0.029877164873731592,0.0
0.014435034714274816,0.0
0.033234149691004806,0.0
-0.016449225604638743,0.0
-0.024505989166094453,0.0
0.03927672236209659,0.0
0.021149004348821242,0.0
-0.021820401312275882,0.0
-0.011078049897001601,0.0
0.03054856183718624,0.0
0.03189135576409552,0.0
0.010406652933546959,0.0
-0.006378271152819104,0.0
-0.043305104142824444,0.0
0.006713969634546426,0.0
0.03994811932555123,0.0
-0.030884260318913552,0.0
-0.03994811932555123,0.0
0.016449225604638743,0.0
0.041962310215915156,0.0
-0.003356984817273213,0.0
-0.01846341649500267,0.0
0.0426337071793698,0.0
0.02719157701991302,0.0
-0.01376363775082017,0.0
-0.007049668116273747,0.0
0.03054856183718624,0.0
0.03189135576409552,0.0
0.009735255970092317,0.0
-0.008392462043183033,0.0
-0.05673304341191729,0.0
-0.007049668116273747,0.0
0.03826962691691462,0.0
-0.025177386129549097,0.0
-0.035919737544823374,0.0
0.003692683299000534,0.0
0.0157778286411841,0.0
-0.029877164873731592,0.0
-0.04061951628900587,0.0
0.030212863355458915,0.0
0.014435034714274816,0.0
-0.02719157701991302,0.0
-0.021149004348821242,0.0
0.023163195239185166,0.0
0.025177386129549097,0.0
0.0023498893720912484,0.0
-0.007049668116273747,0.0
-0.04061951628900587,0.0
0.0023498893720912484,0.0
0.041962310215915156,0.0
-0.01913481345845731,0.0
-0.035248340581368734,0.0
0.014435034714274816,0.0
0.033569848172732134,0.0
0.003692683299000534,0.0
-0.008728160524910353,0.0
0.027862973983367664,-0.042465857938506144
0.011749446860456245,-0.03692683299000534
-0.03054856183718624,-0.0387731746395056
-0.019806210421911954,-0.03910887312123293
0.021149004348821242,-0.03776607919432364
0.033234149691004806,-0.03608758678568704
0.01913481345845731,-0.03440909437705043
-0.0050354772259098195,-0.0323949034866865
-0.049011978332188906,-0.030716411078049892
-0.004699778744182497,-0.03105210955977722
0.03457694361791409,-0.03373769741359579
-0.023834592202639806,-0.036423285267414354
-0.03457694361791409,-0.037094682230869
0.0157778286411841,-0.03608758678568704
0.03054856183718624,-0.03440909437705043
-0.021820401312275882,-0.03373769741359579
-0.03390554665445944,-0.033234149691004806
0.03390554665445944,-0.033401998931868467
0.016449225604638743,-0.03373769741359579
-0.03390554665445944,-0.033066300450141146
-0.014435034714274816,-0.03105210955977722
0.04061951628900587,-0.02853437094682231
0.049347676813916226,-0.02853437094682231
0.02584878309300374,-0.03054856183718624
0.007721065079728388,-0.0323949034866865
-0.03894102388036927,-0.03172350652323186
0.003692683299000534,-0.03172350652323186
0.04632639047837033,-0.03407339589532311
-0.01376363775082017,-0.035751888303959714
-0.017792019531548024,-0.03474479285877775
0.03457694361791409,-0.033401998931868467
0.050690470740825506,-0.03508049134050507
-0.011078049897001601,-0.03776607919432364
-0.02853437094682231,-0.04061951628900587
0.03558403906309605,-0.041794460975051496
0.0157778286411841,-0.04213015945677882
-0.023163195239185166,-0.043472953383688104
-0.012420843823910887,-0.044480048828870064
0.032898451209277486,-0.04414435034714275
0.03390554665445944,-0.04078736552986953
0.007721065079728388,-0.036423285267414354
-0.007049668116273747,-0.03407339589532311
-0.043640802624551764,-0.03373769741359579
0.0003356984817273213,-0.033066300450141146
0.035919737544823374,-0.033066300450141146
-0.027862973983367664,-0.033066300450141146
-0.042298008697642483,-0.03373769741359579
0.003692683299000534,-0.035416189822232394
0.023834592202639806,-0.03508049134050507
-0.022491798275730522,-0.032730601968413826
-0.03256275272755016,-0.030380712596322572
0.035919737544823374,-0.030380712596322572
0.021149004348821242,-0.0323949034866865
-0.024505989166094453,-0.033066300450141146
-0.011413748378728923,-0.033234149691004806
0.02853437094682231,-0.033234149691004806
0.035919737544823374,-0.0323949034866865
0.007721065079728388,-0.03256275272755016
-0.011078049897001601,-0.03440909437705043
-0.051361867704280154,-0.035416189822232394
0.0016784924086366065,-0.03457694361791409
0.03927672236209659,-0.03508049134050507
-0.02652018005645838,-0.035751888303959714
-0.03256275272755016,-0.03474479285877775
0.01846341649500267,-0.032730601968413826
0.03558403906309605,-0.03172350652323186
-0.009735255970092317,-0.03424124513618677
-0.022491798275730522,-0.03860532539864195
0.043305104142824444,-0.042465857938506144
0.03054856183718624,-0.04515144579232471
-0.0157778286411841,-0.04750133516441596
-0.007049668116273747,-0.048508430609597926
0.035919737544823374,-0.04783703364614328
0.03457694361791409,-0.04716563668268864
0.010406652933546959,-0.04515144579232471
-0.005706874189364461,-0.03910887312123293
-0.0473334859235523,-0.030380712596322572
-0.0030212863355458916,-0.021820401312275882
0.03994811932555123,-0.017792019531548024
-0.029877164873731592,-0.020477607385366595
-0.041962310215915156,-0.027695124742504008
0.007721065079728388,-0.03390554665445944
0.023834592202639806,-0.03860532539864195
-0.02719157701991302,-0.041123064011596856
-0.04061951628900587,-0.04078736552986953
0.02887006942854963,-0.0387731746395056
0.021149004348821242,-0.03776607919432364
-0.024505989166094453,-0.036423285267414354
-0.01376363775082017,-0.03373769741359579
0.02853437094682231,-0.03105210955977722
0.029877164873731592,-0.030716411078049892
0.010406652933546959,-0.0323949034866865
-0.0030212863355458916,-0.03256275272755016
-0.049347676813916226,-0.03205920500495917
-0.0030212863355458916,-0.03054856183718624
0.043976501106279084,-0.029037918669413288
-0.016449225604638743,-0.029709315632867935
-0.028198672465094988,-0.030045014114595252
0.02584878309300374,-0.029709315632867935
0.04800488288700694,-0.03054856183718624
-0.005706874189364461,-0.03105210955977722
-0.029877164873731592,-0.03138780804150454
0.03121995880064088,-0.03256275272755016
0.020477607385366595,-0.033066300450141146
-0.016449225604638743,-0.03373769741359579
0.002014190890363927,-0.03390554665445944
0.03457694361791409,-0.03608758678568704
0.0315556572823682,-0.03843747615777828
0.004364080262455177,-0.041123064011596856
-0.012420843823910887,-0.04213015945677882
-0.054047455558098714,-0.041962310215915156
-0.008392462043183033,-0.041123064011596856
0.033234149691004806,-0.04011596856641489
-0.024505989166094453,-0.03910887312123293
-0.024505989166094453,-0.03910887312123293
0.029205767910276948,-0.037094682230869
0.033234149691004806,-0.037094682230869
-0.017792019531548024,-0.03776607919432364
-0.02584878309300374,-0.0387731746395056
0.04800488288700694,-0.03843747615777828
0.037262531471732654,-0.03961242084382391
-0.005706874189364461,-0.042465857938506144
0.0016784924086366065,-0.042465857938506144
0.03994811932555123,-0.03961242084382391
0.03826962691691462,-0.03743038071259632
0.0030212863355458916,-0.036423285267414354
-0.012420843823910887,-0.035751888303959714
-0.049011978332188906,-0.035416189822232394
-0.003692683299000534,-0.033401998931868467
0.03457694361791409,-0.0323949034866865
-0.03256275272755016,-0.033234149691004806
-0.044647898069733724,-0.03373769741359579
0.010406652933546959,-0.03373769741359579
0.027862973983367664,-0.03172350652323186
-0.02349889372091249,-0.03105210955977722
-0.03659113450827802,-0.03054856183718624
0.03121995880064088,-0.029709315632867935
0.0157778286411841,-0.030045014114595252
-0.023163195239185166,-0.03172350652323186
-0.007049668116273747,-0.032730601968413826
0.03927672236209659,-0.0323949034866865
0.0426337071793698,-0.032730601968413826
0.017120622568093383,-0.032898451209277486
-0.0003356984817273213,-0.03474479285877775
-0.0426337071793698,-0.0387731746395056
0.0023498893720912484,-0.04666208896009766
0.03457694361791409,-0.05354390783550774
-0.02719157701991302,-0.05656519417105363
-0.04129091325246051,-0.05488670176241703
0.006378271152819104,-0.050019073777370866
0.02652018005645838,-0.041962310215915156
-0.025177386129549097,-0.0323949034866865
-0.035919737544823374,-0.02400244144350347
0.029205767910276948,-0.020309758144502935
0.014435034714274816,-0.022323949034866862
-0.029877164873731592,-0.027862973983367664
-0.01913481345845731,-0.03508049134050507
0.022156099794003202,-0.03910887312123293
0.02349889372091249,-0.040451667048142216
-0.0030212863355458916,-0.04078736552986953
-0.016449225604638743,-0.04145876249332417
-0.058075837338826576,-0.041962310215915156
-0.01376363775082017,-0.04213015945677882
0.029877164873731592,-0.04414435034714275
-0.02719157701991302,-0.044815747310597384
-0.02584878309300374,-0.04213015945677882
0.023834592202639806,-0.03944457160296025
0.03994811932555123,-0.035751888303959714
-0.016449225604638743,-0.033234149691004806
-0.03256275272755016,-0.033066300450141146
0.03860532539864195,-0.03407339589532311
0.029205767910276948,-0.03675898374914168
-0.011749446860456245,-0.03776607919432364
-0.007049668116273747,-0.03743038071259632
0.03390554665445944,-0.037094682230869
0.035248340581368734,-0.035751888303959714
0.021149004348821242,-0.03508049134050507
0.013092240787365528,-0.035416189822232394
-0.021820401312275882,-0.03776607919432364
0.021149004348821242,-0.03810177767605096
0.05740444037537193,-0.03910887312123293
-0.011078049897001601,-0.040451667048142216
-0.02719157701991302,-0.041794460975051496
0.021149004348821242,-0.04213015945677882
0.03860532539864195,-0.04213015945677882
-0.01376363775082017,-0.043305104142824444
-0.029877164873731592,-0.043808651865415424
0.03994811932555123,-0.042801556420233464
0.03256275272755016,-0.03843747615777828
-0.01846341649500267,-0.03172350652323186
-0.020477607385366595,-0.025680933852140077
0.019806210421911954,-0.02366674296177615
0.033234149691004806,-0.024338139925230793
0.019806210421911954,-0.02366674296177615
0.006378271152819104,-0.022995345998321506
-0.03927672236209659,-0.022995345998321506
0.007049668116273747,-0.0260166323338674
0.0426337071793698,-0.028366521705958644
-0.021484702830548562,-0.027359426260776684
-0.03659113450827802,-0.026352330815594724
0.010406652933546959,-0.026352330815594724
0.03054856183718624,-0.027862973983367664
-0.020141908903639278,-0.029877164873731592
-0.032898451209277486,-0.032730601968413826
0.029205767910276948,-0.037094682230869
0.016449225604638743,-0.040451667048142216
-0.029877164873731592,-0.03978027008468757
-0.01913481345845731,-0.03910887312123293
0.02652018005645838,-0.040451667048142216
0.03457694361791409,-0.03978027008468757
0.013092240787365528,-0.03843747615777828
-0.003692683299000534,-0.03910887312123293
-0.0473334859235523,-0.041123064011596856
-0.006378271152819104,-0.041794460975051496
0.03390554665445944,-0.041123064011596856
-0.021149004348821242,-0.040451667048142216
-0.02584878309300374,-0.03978027008468757
0.011413748378728923,-0.03978027008468757
0.02584878309300374,-0.04129091325246051
-0.023163195239185166,-0.04129091325246051
-0.0379339284351873,-0.03944457160296025
0.026184481574731057,-0.03927672236209659
0.007721065079728388,-0.041123064011596856
-0.03860532539864195,-0.042465857938506144
-0.02719157701991302,-0.04313725490196078
0.020477607385366595,-0.042465857938506144
0.03659113450827802,-0.041794460975051496
0.021820401312275882,-0.041794460975051496
0.0016784924086366065,-0.041794460975051496
-0.04061951628900587,-0.04078736552986953
0.003692683299000534,-0.037094682230869
0.04800488288700694,-0.033234149691004806
-0.016784924086366067,-0.033066300450141146
-0.042298008697642483,-0.033066300450141146
0.0003356984817273213,-0.03256275272755016
0.0157778286411841,-0.033066300450141146
-0.03121995880064088,-0.03440909437705043
-0.041962310215915156,-0.03373769741359579
0.033234149691004806,-0.0323949034866865
0.03457694361791409,-0.03172350652323186
-0.0003356984817273213,-0.03440909437705043
-0.0003356984817273213,-0.036423285267414354
0.033234149691004806,-0.03675898374914168
0.035919737544823374,-0.036423285267414354
0.0157778286411841,-0.036423285267414354
-0.007049668116273747,-0.03508049134050507
-0.049347676813916226,-0.0323949034866865
0.0010070954451819635,-0.02937361715114061
0.04129091325246051,-0.0260166323338674
-0.021820401312275882,-0.024673838406958113
-0.03390554665445944,-0.026184481574731057
0.015106431677729458,-0.025680933852140077
0.037262531471732654,-0.02265964751659419
-0.009735255970092317,-0.020981155107957578
-0.020813305867093918,-0.022323949034866862
0.048676279850461586,-0.024338139925230793
0.03424124513618677,-0.024338139925230793
-0.014435034714274816,-0.025009536888685433
-0.004364080262455177,-0.027023727779049357
0.041962310215915156,-0.027695124742504008
0.04599069199664301,-0.02584878309300374
0.02652018005645838,-0.02366674296177615
0.009735255970092317,-0.025009536888685433
-0.035248340581368734,-0.027023727779049357
0.006378271152819104,-0.027359426260776684
0.0473334859235523,-0.028030823224231328
-0.011078049897001601,-0.029709315632867935
-0.017792019531548024,-0.03138780804150454
0.025177386129549097,-0.030716411078049892
0.03189135576409552,-0.028702220187685965
-0.020477607385366595,-0.027023727779049357
-0.02652018005645838,-0.026352330815594724
0.04531929503318838,-0.027359426260776684
0.02719157701991302,-0.029037918669413288
-0.01913481345845731,-0.029709315632867935
-0.011749446860456245,-0.028702220187685965
0.03189135576409552,-0.029037918669413288
0.03390554665445944,-0.029709315632867935
0.008392462043183033,-0.03138780804150454
-0.020477607385366595,-0.03407339589532311
-0.06747539482719157,-0.03508049134050507
-0.004364080262455177,-0.03508049134050507
0.04666208896009766,-0.03457694361791409
-0.014435034714274816,-0.03508049134050507
-0.021820401312275882,-0.036423285267414354
0.025177386129549097,-0.035416189822232394
0.03390554665445944,-0.03440909437705043
-0.012420843823910887,-0.035416189822232394
-0.021820401312275882,-0.03978027008468757
0.04531929503318838,-0.043472953383688104
0.02584878309300374,-0.043808651865415424
-0.020477607385366595,-0.0426337071793698
-0.011078049897001601,-0.04213015945677882
0.03121995880064088,-0.041123064011596856
0.03457694361791409,-0.04078736552986953
0.010070954451819639,-0.041123064011596856
-0.006378271152819104,-0.04213015945677882
-0.04599069199664301,-0.04414435034714275
-0.004364080262455177,-0.04515144579232471
0.03121995880064088,-0.04531929503318838
-0.03457694361791409,-0.042801556420233464
-0.03927672236209659,-0.040451667048142216
0.015106431677729458,-0.0379339284351873
0.03457694361791409,-0.03608758678568704
-0.015106431677729458,-0.03608758678568704
-0.02719157701991302,-0.0379339284351873
0.037262531471732654,-0.03944457160296025
0.022491798275730522,-0.03944457160296025
-0.021820401312275882,-0.03843747615777828
-0.011078049897001601,-0.0379339284351873
0.03457694361791409,-0.03776607919432364
0.03457694361791409,-0.03843747615777828
0.009063859006637675,-0.0387731746395056
-0.01376363775082017,-0.042298008697642483
-0.04061951628900587,-0.04582284275577936
0.0157778286411841,-0.04649423971923399
0.03927672236209659,-0.042465857938506144
-0.035248340581368734,-0.03843747615777828
-0.0379339284351873,-0.037094682230869
0.03189135576409552,-0.03508049134050507
0.06814679179064621,-0.0323949034866865
0.014435034714274816,-0.03105210955977722
-0.014435034714274816,-0.033401998931868467
0.0426337071793698,-0.035919737544823374
0.023834592202639806,-0.037094682230869
-0.02719157701991302,-0.03776607919432364
-0.019470511940184634,-0.03843747615777828
0.02752727550164034,-0.03944457160296025
0.027862973983367664,-0.042465857938506144
-0.0030212863355458916,-0.043808651865415424
-0.015106431677729458,-0.042801556420233464
-0.054047455558098714,-0.043472953383688104
-0.004364080262455177,-0.04515144579232471
0.033234149691004806,-0.04515144579232471
-0.02584878309300374,-0.04313725490196078
-0.03390554665445944,-0.041123064011596856
0.011749446860456245,-0.04011596856641489
0.029205767910276948,-0.040451667048142216
-0.017792019531548024,-0.041794460975051496
-0.029877164873731592,-0.043472953383688104
0.03121995880064088,-0.044480048828870064
0.017792019531548024,-0.044815747310597384
-0.035248340581368734,-0.044815747310597384
-0.024505989166094453,-0.044480048828870064
0.022491798275730522,-0.04129091325246051
0.02719157701991302,-0.03776607919432364
0.005706874189364461,-0.03508049134050507
-0.012420843823910887,-0.03172350652323186
-0.05941863126573587,-0.029037918669413288
-0.006378271152819104,-0.028366521705958644
0.04129091325246051,-0.030045014114595252
-0.025177386129549097,-0.033066300450141146
-0.033234149691004806,-0.03440909437705043
0.017792019531548024,-0.03138780804150454
0.02887006942854963,-0.028366521705958644
-0.02853437094682231,-0.025680933852140077
-0.03927672236209659,-0.025009536888685433
0.029877164873731592,-0.025680933852140077
0.013092240787365528,-0.02719157701991302
-0.02719157701991302,-0.028702220187685965
-0.01376363775082017,-0.030045014114595252
0.033234149691004806,-0.03121995880064088
0.035248340581368734,-0.03205920500495917
0.010406652933546959,-0.0323949034866865
-0.008392462043183033,-0.0323949034866865
-0.04599069199664301,-0.030380712596322572
-0.0010070954451819635,-0.02719157701991302
0.043305104142824444,-0.027023727779049357
-0.016449225604638743,-0.029709315632867935
-0.024505989166094453,-0.03121995880064088
0.023163195239185166,-0.03373769741359579
0.035248340581368734,-0.036423285267414354
-0.020477607385366595,-0.03843747615777828
-0.03390554665445944,-0.03978027008468757
0.035919737544823374,-0.041962310215915156
0.019470511940184634,-0.04582284275577936
-0.020477607385366595,-0.048508430609597926
-0.0050354772259098195,-0.048844129091325246
0.04129091325246051,-0.04682993820096131
0.033234149691004806,-0.041123064011596856
0.0016784924086366065,-0.0323949034866865
-0.011749446860456245,-0.020645456626230255
-0.037262531471732654,-0.01292439154650187
0.02652018005645838,-0.01326009002822919
0.06411841000991834,-0.020309758144502935
-0.011078049897001601,-0.029709315632867935
-0.029877164873731592,-0.03810177767605096
0.017792019531548024,-0.04313725490196078
0.03860532539864195,-0.04599069199664301
-0.012420843823910887,-0.04750133516441596
-0.023834592202639806,-0.049347676813916226
0.043976501106279084,-0.049851224536507206
0.027862973983367664,-0.049851224536507206
-0.019806210421911954,-0.048844129091325246
-0.013092240787365528,-0.044815747310597384
0.029877164873731592,-0.03810177767605096
0.030884260318913552,-0.033066300450141146
0.0023498893720912484,-0.03373769741359579
-0.005706874189364461,-0.037094682230869
-0.04531929503318838,-0.041123064011596856
-0.004364080262455177,-0.043808651865415424
0.03424124513618677,-0.044480048828870064
-0.02652018005645838,-0.04313725490196078
-0.03189135576409552,-0.042465857938506144
0.015442130159456776,-0.042801556420233464
0.02652018005645838,-0.042465857938506144
-0.021820401312275882,-0.041123064011596856
-0.03390554665445944,-0.03944457160296025
0.02853437094682231,-0.03910887312123293
0.014435034714274816,-0.03910887312123293
-0.022491798275730522,-0.0387731746395056
-0.010406652933546959,-0.03675898374914168
0.03054856183718624,-0.03407339589532311
0.035248340581368734,-0.03373769741359579
0.007049668116273747,-0.0323949034866865
-0.01376363775082017,-0.030380712596322572
-0.05572594796673533,-0.029709315632867935
-0.008392462043183033,-0.030045014114595252
0.03994811932555123,-0.030716411078049892
-0.016449225604638743,-0.03105210955977722
-0.02853437094682231,-0.0323949034866865
0.0157778286411841,-0.03172350652323186
0.02652018005645838,-0.03105210955977722
-0.02652018005645838,-0.03105210955977722
-0.044647898069733724,-0.03172350652323186
0.025177386129549097,-0.0323949034866865
0.010406652933546959,-0.03138780804150454
-0.03860532539864195,-0.03138780804150454
-0.03390554665445944,-0.03172350652323186
0.009063859006637675,-0.03424124513618677
0.010406652933546959,-0.03508049134050507
-0.007721065079728388,-0.03390554665445944
-0.013092240787365528,-0.032730601968413826
-0.055390249485008015,-0.032730601968413826
-0.011749446860456245,-0.03373769741359579
0.023834592202639806,-0.033066300450141146
-0.03659113450827802,-0.033066300450141146
-0.04599069199664301,-0.0323949034866865
0.003692683299000534,-0.03172350652323186
0.020477607385366595,-0.0323949034866865
-0.029205767910276948,-0.03440909437705043
-0.041962310215915156,-0.035416189822232394
0.025177386129549097,-0.035919737544823374
0.0023498893720912484,-0.035751888303959714
-0.04599069199664301,-0.03508049134050507
-0.03256275272755016,-0.03508049134050507
0.012420843823910887,-0.035751888303959714
0.020477607385366595,-0.037094682230869
0.0050354772259098195,-0.03843747615777828
-0.009063859006637675,-0.040451667048142216
-0.050019073777370866,-0.04061951628900587
-0.0016784924086366065,-0.041123064011596856
0.041962310215915156,-0.041794460975051496
-0.021149004348821242,-0.03944457160296025
-0.033234149691004806,-0.03675898374914168
0.023834592202639806,-0.036423285267414354
0.043976501106279084,-0.03675898374914168
-0.009063859006637675,-0.036423285267414354
-0.02584878309300374,-0.03474479285877775
0.04129091325246051,-0.03373769741359579
0.02652018005645838,-0.03407339589532311
-0.021820401312275882,-0.036423285267414354
-0.017120622568093383,-0.037094682230869
0.03994811932555123,-0.03558403906309605
0.05874723430228122,-0.03407339589532311
0.03927672236209659,-0.03457694361791409
0.02584878309300374,-0.03776607919432364
-0.025177386129549097,-0.03978027008468757
0.013092240787365528,-0.04078736552986953
0.0473334859235523,-0.04078736552986953
-0.016449225604638743,-0.04078736552986953
-0.02584878309300374,-0.041123064011596856
0.02584878309300374,-0.04078736552986953
0.0473334859235523,-0.040451667048142216
-0.009063859006637675,-0.040451667048142216
-0.02887006942854963,-0.03927672236209659
0.03692683299000534,-0.037094682230869
0.029205767910276948,-0.03424124513618677
-0.010070954451819639,-0.03138780804150454
0.0016784924086366065,-0.029877164873731592
0.03994811932555123,-0.029037918669413288
0.037262531471732654,-0.02937361715114061
0.008728160524910353,-0.029877164873731592
0.003692683299000534,-0.03105210955977722
-0.029877164873731592,-0.032730601968413826
0.007721065079728388,-0.03390554665445944
0.041962310215915156,-0.033066300450141146
-0.01913481345845731,-0.0323949034866865
-0.029205767910276948,-0.03105210955977722
0.01846341649500267,-0.029709315632867935
0.041962310215915156,-0.029037918669413288
-0.006042572671091783,-0.028366521705958644
-0.024505989166094453,-0.027023727779049357
0.04129091325246051,-0.02668802929732204
0.02652018005645838,-0.028702220187685965
-0.017120622568093383,-0.033401998931868467
-0.010406652933546959,-0.037262531471732654
0.03558403906309605,-0.03810177767605096
0.03927672236209659,-0.03675898374914168
0.0023498893720912484,-0.03508049134050507
-0.014435034714274816,-0.03373769741359579
-0.050019073777370866,-0.030716411078049892
0.004364080262455177,-0.027359426260776684
0.0379339284351873,-0.027023727779049357
-0.02584878309300374,-0.030380712596322572
-0.03121995880064088,-0.03407339589532311
0.017456321049820707,-0.035416189822232394
0.03054856183718624,-0.035919737544823374
-0.017120622568093383,-0.03675898374914168
-0.03121995880064088,-0.036423285267414354
0.035919737544823374,-0.035751888303959714
0.023163195239185166,-0.036423285267414354
-0.017792019531548024,-0.03843747615777828
-0.011078049897001601,-0.041794460975051496
0.029877164873731592,-0.04313725490196078
0.03659113450827802,-0.042465857938506144
0.011078049897001601,-0.04213015945677882
-0.0016784924086366065,-0.04213015945677882
-0.043305104142824444,-0.042465857938506144
0.0023498893720912484,-0.042801556420233464
0.03994811932555123,-0.043472953383688104
-0.015106431677729458,-0.044815747310597384
-0.022491798275730522,-0.044480048828870064
0.023834592202639806,-0.041794460975051496
0.0379339284351873,-0.036423285267414354
-0.015106431677729458,-0.029037918669413288
-0.02853437094682231,-0.02400244144350347
0.037262531471732654,-0.02400244144350347
0.02584878309300374,-0.027695124742504008
-0.021820401312275882,-0.029709315632867935
-0.017792019531548024,-0.03121995880064088
0.035919737544823374,-0.03256275272755016
0.050019073777370866,-0.03407339589532311
0.01846341649500267,-0.03440909437705043
-0.011749446860456245,-0.03474479285877775
-0.060761425192645144,-0.035919737544823374
-0.009735255970092317,-0.03776607919432364
0.0426337071793698,-0.03978027008468757
-0.009735255970092317,-0.04213015945677882
-0.014435034714274816,-0.044480048828870064
0.03457694361791409,-0.04666208896009766
0.04531929503318838,-0.04615854123750667
-0.011078049897001601,-0.043472953383688104
-0.023834592202639806,-0.03978027008468757
0.03659113450827802,-0.03743038071259632
0.014435034714274816,-0.03776607919432364
-0.030212863355458915,-0.03910887312123293
-0.019470511940184634,-0.03978027008468757
0.022491798275730522,-0.04078736552986953
0.021149004348821242,-0.04078736552986953
0.0003356984817273213,-0.03944457160296025
-0.011749446860456245,-0.03659113450827802
-0.05673304341191729,-0.03508049134050507
-0.009063859006637675,-0.03373769741359579
0.03189135576409552,-0.0323949034866865
-0.03054856183718624,-0.0323949034866865
-0.03994811932555123,-0.0323949034866865
0.011078049897001601,-0.03172350652323186
0.029877164873731592,-0.030045014114595252
-0.020477607385366595,-0.030045014114595252
-0.043305104142824444,-0.029709315632867935
0.02584878309300374,-0.027695124742504008
0.019470511940184634,-0.025345235370412753
-0.024505989166094453,-0.02333104448004883
-0.015106431677729458,-0.02333104448004883
0.02652018005645838,-0.024338139925230793
0.03189135576409552,-0.024673838406958113
0.0016784924086366065,-0.025345235370412753
-0.007385366598001068,-0.025345235370412753
-0.05304036011291676,-0.026352330815594724
-0.012756542305638208,-0.027695124742504008
0.03121995880064088,-0.028702220187685965
-0.030212863355458915,-0.030716411078049892
-0.0315556572823682,-0.0315556572823682
0.021820401312275882,-0.0323949034866865
0.03994811932555123,-0.0323949034866865
-0.012420843823910887,-0.033066300450141146
-0.02719157701991302,-0.03440909437705043
0.0426337071793698,-0.03457694361791409
0.03457694361791409,-0.03508049134050507
-0.011078049897001601,-0.037094682230869
-0.0010070954451819635,-0.03776607919432364
0.04129091325246051,-0.03810177767605096
0.03994811932555123,-0.03810177767605096
0.017120622568093383,-0.037262531471732654
0.0023498893720912484,-0.03508049134050507
-0.044647898069733724,-0.03474479285877775
0.0023498893720912484,-0.035751888303959714
0.03994811932555123,-0.035248340581368734
-0.02719157701991302,-0.037262531471732654
-0.029877164873731592,-0.03927672236209659
0.02652018005645838,-0.0387731746395056
0.04599069199664301,-0.035751888303959714
-0.005706874189364461,-0.03172350652323186
-0.024505989166094453,-0.03121995880064088
0.043976501106279084,-0.033234149691004806
0.03189135576409552,-0.035416189822232394
-0.011078049897001601,-0.036423285267414354
-0.009735255970092317,-0.03608758678568704
0.027862973983367664,-0.03440909437705043
0.025177386129549097,-0.03373769741359579
0.010406652933546959,-0.035751888303959714
0.01812771801327535,-0.03776607919432364
-0.017792019531548024,-0.03978027008468757
0.02752727550164034,-0.040451667048142216
0.05471885252155337,-0.03910887312123293
-0.009735255970092317,-0.03843747615777828
-0.022491798275730522,-0.03910887312123293
0.025177386129549097,-0.03944457160296025
0.04095521477073319,-0.03810177767605096
-0.0157778286411841,-0.03743038071259632
-0.02853437094682231,-0.03776607919432364
0.035919737544823374,-0.03743038071259632
0.01846341649500267,-0.036423285267414354
-0.023163195239185166,-0.036423285267414354
-0.009735255970092317,-0.036423285267414354
0.03390554665445944,-0.035416189822232394
0.02853437094682231,-0.033066300450141146
0.006378271152819104,-0.03105210955977722
-0.011413748378728923,-0.030716411078049892
-0.05270466163118945,-0.03205920500495917
-0.003356984817273213,-0.03407339589532311
0.029205767910276948,-0.03508049134050507
-0.03390554665445944,-0.03508049134050507
-0.03927672236209659,-0.03474479285877775
0.013092240787365528,-0.03373769741359579
0.03054856183718624,-0.03205920500495917
-0.01913481345845731,-0.03054856183718624
-0.037262531471732654,-0.03121995880064088
0.020141908903639278,-0.030380712596322572
0.0050354772259098195,-0.028366521705958644
-0.027862973983367664,-0.027359426260776684
-0.0016784924086366065,-0.028366521705958644
0.05471885252155337,-0.030380712596322572
0.05471885252155337,-0.03105210955977722
0.02853437094682231,-0.0323949034866865
0.009063859006637675,-0.03189135576409552
-0.0473334859235523,-0.03205920500495917
-0.007049668116273747,-0.033234149691004806
0.03189135576409552,-0.035751888303959714
-0.03054856183718624,-0.03826962691691462
-0.03256275272755016,-0.03978027008468757
0.012756542305638208,-0.03994811932555123
0.026184481574731057,-0.03978027008468757
-0.017792019531548024,-0.03978027008468757
-0.02652018005645838,-0.04011596856641489
0.03659113450827802,-0.04129091325246051
0.023834592202639806,-0.04213015945677882
-0.025177386129549097,-0.04078736552986953
-0.01913481345845731,-0.03978027008468757
0.023834592202639806,-0.041123064011596856
0.03390554665445944,-0.04313725490196078
0.013092240787365528,-0.043808651865415424
-0.007049668116273747,-0.044480048828870064
-0.051361867704280154,-0.04313725490196078
-0.011749446860456245,-0.03927672236209659
0.02719157701991302,-0.037094682230869
-0.03121995880064088,-0.03843747615777828
-0.035248340581368734,-0.041794460975051496
0.010406652933546959,-0.04716563668268864
0.025513084611276417,-0.05589379720759898
-0.024841687647821773,-0.06327916380560006
-0.035248340581368734,-0.06797894254978255
0.02719157701991302,-0.06932173647669183
0.0157778286411841,-0.06663614862287326
-0.020477607385366595,-0.05857938506141757
-0.003692683299000534,-0.044480048828870064
0.043640802624551764,-0.026352330815594724
0.0520332646677348,-0.010910200656137941
0.023834592202639806,-0.004867627985046159
0.009063859006637675,-0.009567406729228655
-0.03390554665445944,-0.019638361181048294
0.006378271152819104,-0.028702220187685965
0.04632639047837033,-0.03373769741359579
-0.017792019531548024,-0.036423285267414354
-0.03457694361791409,-0.03910887312123293
0.011749446860456245,-0.040451667048142216
0.03121995880064088,-0.040451667048142216
-0.01913481345845731,-0.03978027008468757
-0.035248340581368734,-0.03810177767605096
0.03121995880064088,-0.035416189822232394
0.014435034714274816,-0.03373769741359579
-0.03054856183718624,-0.03205920500495917
-0.021820401312275882,-0.030380712596322572
0.022491798275730522,-0.02937361715114061
0.022491798275730522,-0.030380712596322572
-0.003692683299000534,-0.029709315632867935
-0.010070954451819639,-0.027359426260776684
-0.04599069199664301,-0.0260166323338674
0.0023498893720912484,-0.024338139925230793
0.041962310215915156,-0.02400244144350347
-0.024505989166094453,-0.024338139925230793
-0.04061951628900587,-0.024338139925230793
0.005706874189364461,-0.024338139925230793
0.02349889372091249,-0.025680933852140077
-0.02584878309300374,-0.028366521705958644
-0.02887006942854963,-0.03105210955977722
0.04129091325246051,-0.03373769741359579
0.02887006942854963,-0.03440909437705043
-0.017792019531548024,-0.03373769741359579
-0.017792019531548024,-0.033401998931868467
0.019806210421911954,-0.033066300450141146
0.029205767910276948,-0.0323949034866865
0.012420843823910887,-0.033234149691004806
-0.007721065079728388,-0.036423285267414354
-0.05337605859464408,-0.03944457160296025
-0.0006713969634546426,-0.040451667048142216
0.037262531471732654,-0.03944457160296025
-0.021820401312275882,-0.03978027008468757
-0.02719157701991302,-0.04078736552986953
0.01913481345845731,-0.042298008697642483
0.04095521477073319,-0.043808651865415424
-0.011078049897001601,-0.044480048828870064
-0.021820401312275882,-0.044647898069733724
0.0426337071793698,-0.04515144579232471
0.029205767910276948,-0.04716563668268864
-0.017120622568093383,-0.04783703364614328
-0.007049668116273747,-0.04716563668268864
0.04061951628900587,-0.04615854123750667
0.041962310215915156,-0.04531929503318838
0.011749446860456245,-0.04531929503318838
-0.011749446860456245,-0.04582284275577936
-0.06210421911955444,-0.044480048828870064
-0.014435034714274816,-0.0426337071793698
0.02719157701991302,-0.041794460975051496
-0.033234149691004806,-0.042801556420233464
-0.03659113450827802,-0.042465857938506144
0.015106431677729458,-0.042465857938506144
0.025177386129549097,-0.042465857938506144
-0.02584878309300374,-0.04313725490196078
-0.037262531471732654,-0.04313725490196078
0.029205767910276948,-0.04213015945677882
0.014435034714274816,-0.041794460975051496
-0.02584878309300374,-0.041123064011596856
-0.017792019531548024,-0.041123064011596856
0.022827496757457846,-0.04129091325246051
0.02853437094682231,-0.041794460975051496
0.008728160524910353,-0.042465857938506144
-0.0003356984817273213,-0.041962310215915156
-0.044647898069733724,-0.03944457160296025
0.003692683299000534,-0.03776607919432364
0.03994811932555123,-0.036423285267414354
-0.025177386129549097,-0.03776607919432364
-0.03054856183718624,-0.03910887312123293
0.022491798275730522,-0.0387731746395056
0.03927672236209659,-0.036423285267414354
-0.011078049897001601,-0.03440909437705043
-0.02719157701991302,-0.035751888303959714
0.03390554665445944,-0.037094682230869
0.025177386129549097,-0.037094682230869
-0.017792019531548024,-0.035751888303959714
-0.007385366598001068,-0.033066300450141146
0.035919737544823374,-0.030380712596322572
0.03692683299000534,-0.029037918669413288
0.008728160524910353,-0.028702220187685965
-0.003692683299000534,-0.026352330815594724
-0.03692683299000534,-0.024338139925230793
0.014435034714274816,-0.024673838406958113
0.041962310215915156,-0.024338139925230793
-0.02719157701991302,-0.02265964751659419
-0.035919737544823374,-0.020309758144502935
0.021149004348821242,-0.020309758144502935
0.03994811932555123,-0.021988250553139542
-0.008392462043183033,-0.021988250553139542
-0.016449225604638743,-0.021652552071412222
0.043976501106279084,-0.020981155107957578
0.029877164873731592,-0.021652552071412222
-0.016449225604638743,-0.024338139925230793
-0.007385366598001068,-0.02853437094682231
0.03457694361791409,-0.0323949034866865
0.029877164873731592,-0.03373769741359579
-0.0010070954451819635,-0.032730601968413826
-0.016449225604638743,-0.03256275272755016
-0.0473334859235523,-0.03172350652323186
0.005706874189364461,-0.03105210955977722
0.04666208896009766,-0.02937361715114061
-0.017120622568093383,-0.028366521705958644
-0.027862973983367664,-0.028702220187685965
0.01846341649500267,-0.030380712596322572
0.035919737544823374,-0.030380712596322572
-0.008728160524910353,-0.02752727550164034
-0.024505989166094453,-0.02400244144350347
0.03994811932555123,-0.021652552071412222
0.026184481574731057,-0.0213168535896849
-0.023163195239185166,-0.021652552071412222
-0.020813305867093918,-0.02333104448004883
0.025177386129549097,-0.025680933852140077
0.04129091325246051,-0.028366521705958644
0.019806210421911954,-0.03121995880064088
-0.0003356984817273213,-0.0323949034866865
-0.04599069199664301,-0.03373769741359579
-0.0030212863355458916,-0.035919737544823374
0.033234149691004806,-0.03860532539864195
-0.026184481574731057,-0.04213015945677882
-0.035919737544823374,-0.044480048828870064
0.014435034714274816,-0.04615854123750667
0.02584878309300374,-0.04716563668268864
-0.020477607385366595,-0.04682993820096131
-0.03256275272755016,-0.044480048828870064
0.03189135576409552,-0.04313725490196078
0.020477607385366595,-0.042465857938506144
-0.024505989166094453,-0.040451667048142216
-0.013092240787365528,-0.03810177767605096
0.03054856183718624,-0.03843747615777828
0.033234149691004806,-0.040451667048142216
0.005706874189364461,-0.041794460975051496
-0.0030212863355458916,-0.04213015945677882
-0.041962310215915156,-0.04213015945677882
-0.0016784924086366065,-0.040451667048142216
0.037262531471732654,-0.0379339284351873
-0.025177386129549097,-0.036423285267414354
-0.03424124513618677,-0.03860532539864195
0.014435034714274816,-0.04129091325246051
0.03424124513618677,-0.04213015945677882
-0.019806210421911954,-0.03978027008468757
-0.03659113450827802,-0.037094682230869
0.02652018005645838,-0.036423285267414354
0.006378271152819104,-0.035751888303959714
-0.03390554665445944,-0.035751888303959714
-0.021820401312275882,-0.03776607919432364
0.0157778286411841,-0.03776607919432364
0.01846341649500267,-0.03776607919432364
0.0010070954451819635,-0.037262531471732654
-0.003692683299000534,-0.03608758678568704
-0.04666208896009766,-0.035751888303959714
-0.009063859006637675,-0.037094682230869
0.03054856183718624,-0.03944457160296025
-0.01913481345845731,-0.04078736552986953
-0.020813305867093918,-0.03944457160296025
0.023163195239185166,-0.03776607919432364
0.03457694361791409,-0.037094682230869
-0.017792019531548024,-0.035751888303959714
-0.04061951628900587,-0.03508049134050507
0.02853437094682231,-0.03407339589532311
0.016449225604638743,-0.03189135576409552
-0.03054856183718624,-0.03138780804150454
-0.023163195239185166,-0.03373769741359579
0.03054856183718624,-0.03608758678568704
0.043976501106279084,-0.036423285267414354
0.023834592202639806,-0.035751888303959714
0.009735255970092317,-0.03390554665445944
-0.04061951628900587,-0.033234149691004806
-0.006042572671091783,-0.033066300450141146
0.029877164873731592,-0.03373769741359579
-0.03256275272755016,-0.03508049134050507
-0.03927672236209659,-0.035751888303959714
0.022156099794003202,-0.03843747615777828
0.043305104142824444,-0.042465857938506144
-0.009735255970092317,-0.04716563668268864
-0.023163195239185166,-0.050522621499961846
0.0426337071793698,-0.050186923018234526
0.02853437094682231,-0.043808651865415424
-0.01812771801327535,-0.032730601968413826
-0.009735255970092317,-0.019302662699320974
0.03054856183718624,-0.009903105210955977
0.03390554665445944,-0.008896009765774012
0.01376363775082017,-0.01359578850995651
-0.003692683299000534,-0.020477607385366595
-0.04095521477073319,-0.025680933852140077
0.004699778744182497,-0.029037918669413288
0.0426337071793698,-0.0323949034866865
-0.011078049897001601,-0.03508049134050507
-0.016449225604638743,-0.037262531471732654
0.03390554665445944,-0.03810177767605096
0.043976501106279084,-0.03843747615777828
-0.011078049897001601,-0.04011596856641489
-0.021149004348821242,-0.04011596856641489
0.03994811932555123,-0.040451667048142216
0.020813305867093918,-0.041794460975051496
-0.025177386129549097,-0.041962310215915156
-0.015106431677729458,-0.041794460975051496
0.03054856183718624,-0.03810177767605096
0.03121995880064088,-0.03457694361791409
0.004699778744182497,-0.0323949034866865
-0.012420843823910887,-0.03373769741359579
-0.05673304341191729,-0.037262531471732654
-0.005706874189364461,-0.0387731746395056
0.037262531471732654,-0.03810177767605096
-0.023834592202639806,-0.03776607919432364
-0.029877164873731592,-0.03860532539864195
0.021149004348821242,-0.03944457160296025
0.0379339284351873,-0.03978027008468757
-0.012420843823910887,-0.041123064011596856
-0.019806210421911954,-0.042465857938506144
0.05035477225909819,-0.0426337071793698
0.027862973983367664,-0.04145876249332417
-0.016449225604638743,-0.0387731746395056
-0.0030212863355458916,-0.035751888303959714
0.037262531471732654,-0.03508049134050507
0.035919737544823374,-0.03843747615777828
0.014435034714274816,-0.042465857938506144
-0.0003356984817273213,-0.044480048828870064
-0.043640802624551764,-0.04313725490196078
-0.0030212863355458916,-0.040451667048142216
0.03457694361791409,-0.03978027008468757
-0.021820401312275882,-0.040451667048142216
-0.03659113450827802,-0.040451667048142216
0.0023498893720912484,-0.040451667048142216
0.017792019531548024,-0.03910887312123293
-0.03189135576409552,-0.037094682230869
-0.035919737544823374,-0.03675898374914168
0.03659113450827802,-0.037094682230869
0.019806210421911954,-0.03776607919432364
-0.023163195239185166,-0.03675898374914168
-0.01913481345845731,-0.036423285267414354
0.027862973983367664,-0.03776607919432364
0.04095521477073319,-0.03978027008468757
0.015106431677729458,-0.04213015945677882
-0.0030212863355458916,-0.04313725490196078
-0.03927672236209659,-0.043808651865415424
0.0050354772259098195,-0.04515144579232471
0.037262531471732654,-0.04582284275577936
-0.0379339284351873,-0.04615854123750667
-0.051361867704280154,-0.04582284275577936
-0.0016784924086366065,-0.04213015945677882
0.02887006942854963,-0.033066300450141146
-0.012420843823910887,-0.02366674296177615
-0.023163195239185166,-0.019974059662775615
0.041962310215915156,-0.0213168535896849
0.021149004348821242,-0.025009536888685433
-0.030212863355458915,-0.028366521705958644
-0.021820401312275882,-0.03189135576409552
0.02719157701991302,-0.033066300450141146
0.033234149691004806,-0.0323949034866865
0.0157778286411841,-0.03189135576409552
-0.0010070954451819635,-0.030716411078049892
-0.048676279850461586,-0.029037918669413288
-0.009735255970092317,-0.028702220187685965
0.027862973983367664,-0.028702220187685965
-0.029877164873731592,-0.027695124742504008
-0.041962310215915156,-0.027359426260776684
0.0016784924086366065,-0.027359426260776684
0.020477607385366595,-0.029037918669413288
-0.017120622568093383,-0.030045014114595252
-0.027862973983367664,-0.030045014114595252
0.035919737544823374,-0.028366521705958644
0.023163195239185166,-0.02668802929732204
-0.0157778286411841,-0.02668802929732204
0.0003356984817273213,-0.025680933852140077
0.04129091325246051,-0.024673838406958113
0.04061951628900587,-0.024338139925230793
0.01376363775082017,-0.024673838406958113
0.004699778744182497,-0.026352330815594724
-0.03558403906309605,-0.028366521705958644
0.007721065079728388,-0.029709315632867935
0.04129091325246051,-0.030716411078049892
-0.014770733196002136,-0.0323949034866865
-0.01812771801327535,-0.03440909437705043
0.029205767910276948,-0.03675898374914168
0.03994811932555123,-0.03608758678568704
-0.011078049897001601,-0.033401998931868467
-0.02584878309300374,-0.03105210955977722
0.03994811932555123,-0.028702220187685965
0.019806210421911954,-0.028366521705958644
-0.023834592202639806,-0.029205767910276948
-0.009735255970092317,-0.03105210955977722
0.03189135576409552,-0.033066300450141146
0.03054856183718624,-0.03407339589532311
0.009735255970092317,-0.03508049134050507
-0.010406652933546959,-0.036423285267414354
-0.05505455100328068,-0.037094682230869
-0.008392462043183033,-0.03776607919432364
0.03457694361791409,-0.037094682230869
-0.027862973983367664,-0.037094682230869
-0.03860532539864195,-0.03843747615777828
0.009063859006637675,-0.041123064011596856
0.027862973983367664,-0.04515144579232471
-0.023163195239185166,-0.04750133516441596
-0.03927672236209659,-0.048844129091325246
0.03860532539864195,-0.04783703364614328
0.02652018005645838,-0.04515144579232471
-0.017792019531548024,-0.043808651865415424
-0.003692683299000534,-0.044480048828870064
0.048676279850461586,-0.044480048828870064
0.05337605859464408,-0.041794460975051496
0.021820401312275882,-0.03910887312123293
-0.0016784924086366065,-0.03776607919432364
-0.050690470740825506,-0.03843747615777828
-0.006378271152819104,-0.04213015945677882
0.03457694361791409,-0.04313725490196078
-0.023163195239185166,-0.04145876249332417
-0.02719157701991302,-0.03910887312123293
0.02652018005645838,-0.03810177767605096
0.044647898069733724,-0.03910887312123293
-0.005706874189364461,-0.03944457160296025
-0.022491798275730522,-0.03810177767605096
0.037262531471732654,-0.03810177767605096
0.023834592202639806,-0.03927672236209659
-0.021820401312275882,-0.03910887312123293
-0.011078049897001601,-0.03508049134050507
0.025177386129549097,-0.030045014114595252
0.03457694361791409,-0.028366521705958644
0.013092240787365528,-0.03172350652323186
-0.004699778744182497,-0.035919737544823374
-0.04599069199664301,-0.035416189822232394
-0.004364080262455177,-0.03205920500495917
0.03994811932555123,-0.030380712596322572
-0.01913481345845731,-0.029877164873731592
-0.029877164873731592,-0.03105210955977722
0.017120622568093383,-0.03172350652323186
0.03189135576409552,-0.03256275272755016
-0.016449225604638743,-0.03373769741359579
-0.02752727550164034,-0.03457694361791409
0.03256275272755016,-0.036423285267414354
0.0050354772259098195,-0.03659113450827802
-0.043305104142824444,-0.037094682230869
-0.029877164873731592,-0.03810177767605096
0.025177386129549097,-0.03810177767605096
0.03994811932555123,-0.03776607919432364
0.020813305867093918,-0.03910887312123293
0.006378271152819104,-0.042465857938506144
-0.044647898069733724,-0.043808651865415424
-0.007049668116273747,-0.042801556420233464
0.037262531471732654,-0.040451667048142216
-0.025177386129549097,-0.03910887312123293
-0.0379339284351873,-0.03776607919432364
0.005706874189364461,-0.036423285267414354
0.021149004348821242,-0.03373769741359579
-0.03054856183718624,-0.030045014114595252
-0.037262531471732654,-0.027023727779049357
0.03860532539864195,-0.025345235370412753
0.02652018005645838,-0.0260166323338674
-0.01913481345845731,-0.028030823224231328
-0.015106431677729458,-0.029205767910276948
0.02719157701991302,-0.03205920500495917
0.027862973983367664,-0.035416189822232394
0.0050354772259098195,-0.036423285267414354
-0.007721065079728388,-0.03608758678568704
-0.04666208896009766,-0.03407339589532311
0.003692683299000534,-0.03373769741359579
0.037262531471732654,-0.03474479285877775
-0.02853437094682231,-0.03474479285877775
-0.035919737544823374,-0.03407339589532311
0.017120622568093383,-0.033234149691004806
0.04129091325246051,-0.03172350652323186
-0.009063859006637675,-0.0323949034866865
-0.021820401312275882,-0.03407339589532311
0.041962310215915156,-0.03440909437705043
0.02752727550164034,-0.033066300450141146
-0.01913481345845731,-0.033401998931868467
-0.008392462043183033,-0.03440909437705043
0.030212863355458915,-0.03407339589532311
0.029205767910276948,-0.033066300450141146
0.007049668116273747,-0.03172350652323186
-0.012085145342183566,-0.03054856183718624
-0.054047455558098714,-0.030380712596322572
-0.0010070954451819635,-0.03172350652323186
0.044647898069733724,-0.03205920500495917
-0.021820401312275882,-0.03105210955977722
-0.03054856183718624,-0.030380712596322572
0.016449225604638743,-0.03121995880064088
0.035919737544823374,-0.0323949034866865
-0.01376363775082017,-0.03508049134050507
-0.02719157701991302,-0.03843747615777828
0.03860532539864195,-0.04061951628900587
0.020477607385366595,-0.04095521477073319
-0.022156099794003202,-0.040451667048142216
-0.011078049897001601,-0.03910887312123293
0.037262531471732654,-0.03910887312123293
0.043976501106279084,-0.04078736552986953
0.025177386129549097,-0.043808651865415424
0.007721065079728388,-0.04649423971923399
-0.037262531471732654,-0.048844129091325246
0.007721065079728388,-0.049011978332188906
0.03826962691691462,-0.048844129091325246
-0.021820401312275882,-0.048508430609597926
-0.02584878309300374,-0.04649423971923399
0.025177386129549097,-0.044480048828870064
0.03994811932555123,-0.044815747310597384
-0.008392462043183033,-0.04531929503318838
-0.021820401312275882,-0.043976501106279084
0.042298008697642483,-0.041794460975051496
0.028198672465094988,-0.03978027008468757
-0.01376363775082017,-0.04011596856641489
-0.003356984817273213,-0.04078736552986953
0.03994811932555123,-0.040451667048142216
0.043976501106279084,-0.040451667048142216
0.01846341649500267,-0.03978027008468757
-0.01376363775082017,-0.03910887312123293
-0.07016098268101013,-0.04011596856641489
-0.017120622568093383,-0.04145876249332417
0.04531929503318838,-0.04313725490196078
0.0030212863355458916,-0.04515144579232471
-0.009063859006637675,-0.04649423971923399
0.021149004348821242,-0.04666208896009766
0.03189135576409552,-0.04649423971923399
-0.017120622568093383,-0.04783703364614328
-0.03121995880064088,-0.050186923018234526
0.03189135576409552,-0.05253681239032577
0.014770733196002136,-0.05253681239032577
-0.02719157701991302,-0.049851224536507206
-0.017792019531548024,-0.042465857938506144
0.023834592202639806,-0.03105210955977722
0.02652018005645838,-0.019974059662775615
0.0016784924086366065,-0.014938582436865796
-0.017120622568093383,-0.01695277332722972
-0.05941863126573587,-0.022995345998321506
-0.015106431677729458,-0.028366521705958644
0.032898451209277486,-0.03105210955977722
-0.029877164873731592,-0.0323949034866865
-0.04061951628900587,-0.03172350652323186
0.007721065079728388,-0.03172350652323186
0.020813305867093918,-0.033066300450141146
-0.02752727550164034,-0.03407339589532311
-0.03659113450827802,-0.034912642099641414
0.035919737544823374,-0.036423285267414354
0.027862973983367664,-0.036423285267414354
-0.020813305867093918,-0.03373769741359579
-0.012420843823910887,-0.03054856183718624
0.03054856183718624,-0.029709315632867935
0.03256275272755016,-0.03105210955977722
0.007721065079728388,-0.032730601968413826
-0.008392462043183033,-0.0323949034866865
-0.05673304341191729,-0.03105210955977722
-0.006378271152819104,-0.029709315632867935
0.03189135576409552,-0.029709315632867935
-0.02719157701991302,-0.03054856183718624
-0.025177386129549097,-0.03172350652323186
0.01846341649500267,-0.03440909437705043
0.03121995880064088,-0.037262531471732654
-0.021820401312275882,-0.0379339284351873
-0.03121995880064088,-0.036423285267414354
0.03860532539864195,-0.03373769741359579
0.024505989166094453,-0.03205920500495917
-0.019470511940184634,-0.03172350652323186
-0.005706874189364461,-0.03138780804150454
0.0315556572823682,-0.0323949034866865
0.035919737544823374,-0.03172350652323186
0.010406652933546959,-0.032730601968413826
-0.0003356984817273213,-0.036423285267414354
-0.037262531471732654,-0.03978027008468757
0.007721065079728388,-0.0426337071793698
0.04129091325246051,-0.044480048828870064
-0.024505989166094453,-0.043472953383688104
-0.03256275272755016,-0.040451667048142216
0.016449225604638743,-0.03843747615777828
0.03121995880064088,-0.03743038071259632
-0.01913481345845731,-0.03776607919432364
-0.02853437094682231,-0.03910887312123293
0.043976501106279084,-0.03910887312123293
0.03457694361791409,-0.037094682230869
-0.011078049897001601,-0.03373769741359579
-0.007049668116273747,-0.02853437094682231
0.029205767910276948,-0.022995345998321506
0.03054856183718624,-0.019806210421911954
0.0050354772259098195,-0.020645456626230255
-0.008392462043183033,-0.024673838406958113
-0.04666208896009766,-0.029037918669413288
-0.0016784924086366065,-0.03205920500495917
0.03558403906309605,-0.030380712596322572
-0.02719157701991302,-0.029037918669413288
-0.04061951628900587,-0.029709315632867935
0.007049668116273747,-0.03105210955977722
0.029205767910276948,-0.0323949034866865
-0.007721065079728388,-0.03105210955977722
-0.021820401312275882,-0.028702220187685965
0.037262531471732654,-0.028366521705958644
0.013092240787365528,-0.02887006942854963
-0.024841687647821773,-0.029709315632867935
-0.007049668116273747,-0.030380712596322572
0.035919737544823374,-0.03054856183718624
0.03390554665445944,-0.03105210955977722
0.007049668116273747,-0.032730601968413826
-0.007049668116273747,-0.036423285267414354
-0.04766918440527961,-0.03843747615777828
-0.0003356984817273213,-0.03944457160296025
0.035248340581368734,-0.04061951628900587
-0.029877164873731592,-0.03927672236209659
-0.03860532539864195,-0.03810177767605096
0.011078049897001601,-0.03810177767605096
0.02719157701991302,-0.03810177767605096
-0.019470511940184634,-0.03659113450827802
-0.03256275272755016,-0.035751888303959714
0.02652018005645838,-0.03508049134050507
0.009735255970092317,-0.03608758678568704
-0.029877164873731592,-0.03843747615777828
-0.015106431677729458,-0.03843747615777828
0.027862973983367664,-0.037262531471732654
0.029205767910276948,-0.037094682230869
0.0050354772259098195,-0.03675898374914168
-0.015106431677729458,-0.036423285267414354
-0.05673304341191729,-0.035751888303959714
-0.007049668116273747,-0.03440909437705043
0.03189135576409552,-0.032730601968413826
-0.026184481574731057,-0.03256275272755016
-0.02719157701991302,-0.0323949034866865
0.017120622568093383,-0.03205920500495917
0.02652018005645838,-0.03172350652323186
-0.016449225604638743,-0.03172350652323186
-0.022491798275730522,-0.03172350652323186
0.043305104142824444,-0.03105210955977722
0.03054856183718624,-0.03054856183718624
-0.009735255970092317,-0.029877164873731592
-0.0010070954451819635,-0.029037918669413288
0.03826962691691462,-0.028366521705958644
0.0379339284351873,-0.03105210955977722
0.01812771801327535,-0.03440909437705043
0.009735255970092317,-0.03810177767605096
-0.03256275272755016,-0.040451667048142216
0.007721065079728388,-0.03910887312123293
0.04800488288700694,-0.03910887312123293
-0.007385366598001068,-0.03994811932555123
-0.011749446860456245,-0.041794460975051496
0.03390554665445944,-0.04313725490196078
0.04061951628900587,-0.041794460975051496
-0.01376363775082017,-0.04145876249332417
-0.021820401312275882,-0.042969405661097124
0.0426337071793698,-0.044480048828870064
0.022491798275730522,-0.04515144579232471
-0.021820401312275882,-0.04313725490196078
-0.009735255970092317,-0.03994811932555123
0.02652018005645838,-0.03843747615777828
0.033234149691004806,-0.03810177767605096
0.006378271152819104,-0.036423285267414354
-0.007049668116273747,-0.03508049134050507
-0.04599069199664301,-0.03508049134050507
0.004028381780727854,-0.035751888303959714
0.043976501106279084,-0.03776607919432364
-0.01913481345845731,-0.03994811932555123
-0.03054856183718624,-0.03978027008468757
0.019806210421911954,-0.03776607919432364
0.03256275272755016,-0.03508049134050507
-0.015106431677729458,-0.03424124513618677
-0.02719157701991302,-0.033234149691004806
0.037262531471732654,-0.0323949034866865
0.022491798275730522,-0.03138780804150454
-0.019806210421911954,-0.03138780804150454
-0.009063859006637675,-0.03105210955977722
0.035919737544823374,-0.03105210955977722
0.0426337071793698,-0.03189135576409552
0.022491798275730522,-0.03373769741359579
0.0016784924086366065,-0.035751888303959714
-0.04061951628900587,-0.037262531471732654
0.007721065079728388,-0.03910887312123293
0.04129091325246051,-0.04129091325246051
-0.022491798275730522,-0.041794460975051496
-0.029205767910276948,-0.03978027008468757
0.0157778286411841,-0.037094682230869
0.037262531471732654,-0.035751888303959714
-0.012420843823910887,-0.03675898374914168
-0.01913481345845731,-0.0387731746395056
0.0473334859235523,-0.04078736552986953
0.02652018005645838,-0.04129091325246051
-0.02584878309300374,-0.03978027008468757
-0.023834592202639806,-0.03675898374914168
0.015106431677729458,-0.03474479285877775
0.017120622568093383,-0.03508049134050507
-0.0016784924086366065,-0.03508049134050507
-0.014099336232547494,-0.035416189822232394
-0.056061646448462656,-0.035751888303959714
-0.015106431677729458,-0.037094682230869
0.02719157701991302,-0.03776607919432364
-0.02887006942854963,-0.03743038071259632
-0.037262531471732654,-0.03407339589532311
0.009735255970092317,-0.03105210955977722
0.023163195239185166,-0.027695124742504008
-0.029205767910276948,-0.025345235370412753
-0.033234149691004806,-0.025680933852140077
0.05270466163118945,-0.028702220187685965
0.020477607385366595,-0.03205920500495917
-0.03121995880064088,-0.03373769741359579
-0.020813305867093918,-0.035751888303959714
0.019806210421911954,-0.03810177767605096
0.01846341649500267,-0.03910887312123293
-0.004364080262455177,-0.03776607919432364
-0.020477607385366595,-0.03121995880064088
-0.058075837338826576,-0.022995345998321506
-0.007721065079728388,-0.017624170290684367
0.02652018005645838,-0.01829556725413901
-0.03121995880064088,-0.022995345998321506
-0.03121995880064088,-0.027695124742504008
0.016449225604638743,-0.030380712596322572
0.03189135576409552,-0.03121995880064088
-0.013092240787365528,-0.03105210955977722
-0.024505989166094453,-0.03172350652323186
0.03927672236209659,-0.03054856183718624
0.025177386129549097,-0.027862973983367664
-0.015106431677729458,-0.025009536888685433
-0.009735255970092317,-0.025009536888685433
0.03054856183718624,-0.029037918669413288
0.035919737544823374,-0.035751888303959714
0.022491798275730522,-0.043472953383688104
0.013092240787365528,-0.049347676813916226
-0.03256275272755016,-0.0528725108720531
0.010406652933546959,-0.05337605859464408
0.048676279850461586,-0.049851224536507206
-0.019806210421911954,-0.04078736552986953
-0.03121995880064088,-0.02668802929732204
0.0157778286411841,-0.014938582436865796
0.029205767910276948,-0.011245899137865261
-0.014435034714274816,-0.01560997940032044
-0.016449225604638743,-0.024505989166094453
0.055390249485008015,-0.033066300450141146
0.027862973983367664,-0.03843747615777828
-0.02719157701991302,-0.03978027008468757
-0.01846341649500267,-0.040451667048142216
0.03054856183718624,-0.042465857938506144
0.03994811932555123,-0.04515144579232471
0.016784924086366067,-0.04716563668268864
-0.0030212863355458916,-0.04716563668268864
-0.0473334859235523,-0.04582284275577936
0.0003356984817273213,-0.043808651865415424
0.04129091325246051,-0.041962310215915156
-0.021149004348821242,-0.041794460975051496
-0.029877164873731592,-0.04213015945677882
0.01846341649500267,-0.04313725490196078
0.03390554665445944,-0.04213015945677882
-0.019806210421911954,-0.04145876249332417
-0.0379339284351873,-0.04145876249332417
0.027862973983367664,-0.04078736552986953
0.014435034714274816,-0.040451667048142216
-0.035919737544823374,-0.03910887312123293
-0.03121995880064088,-0.03810177767605096
0.013092240787365528,-0.03843747615777828
0.02887006942854963,-0.03843747615777828
0.010406652933546959,-0.03692683299000534
-0.011078049897001601,-0.03440909437705043
-0.05673304341191729,-0.03105210955977722
-0.008392462043183033,-0.028702220187685965
0.03054856183718624,-0.028366521705958644
-0.029877164873731592,-0.029709315632867935
-0.035248340581368734,-0.03172350652323186
0.014435034714274816,-0.0323949034866865
0.029205767910276948,-0.0323949034866865
-0.017792019531548024,-0.03407339589532311
-0.020477607385366595,-0.036423285267414354
0.04800488288700694,-0.03843747615777828
0.0379339284351873,-0.03843747615777828
-0.009063859006637675,-0.036423285267414354
-0.0050354772259098195,-0.03407339589532311
0.03424124513618677,-0.033066300450141146
0.03860532539864195,-0.03407339589532311
0.017120622568093383,-0.03675898374914168
-0.007049668116273747,-0.037094682230869
-0.051361867704280154,-0.037094682230869
-0.004364080262455177,-0.03810177767605096
0.03860532539864195,-0.040451667048142216
-0.017792019531548024,-0.040451667048142216
-0.03457694361791409,-0.03843747615777828
0.01376363775082017,-0.03659113450827802
0.03189135576409552,-0.03508049134050507
-0.013092240787365528,-0.035751888303959714
-0.02719157701991302,-0.03810177767605096
0.03927672236209659,-0.040451667048142216
0.027862973983367664,-0.041123064011596856
-0.02719157701991302,-0.04095521477073319
-0.021149004348821242,-0.041123064011596856
0.023834592202639806,-0.040451667048142216
0.027862973983367664,-0.03978027008468757
0.007385366598001068,-0.0387731746395056
-0.009735255970092317,-0.03776607919432364
-0.055390249485008015,-0.03508049134050507
-0.007049668116273747,-0.03508049134050507
0.02752727550164034,-0.03944457160296025
-0.03256275272755016,-0.044480048828870064
-0.03659113450827802,-0.04682993820096131
0.015106431677729458,-0.04582284275577936
0.032898451209277486,-0.04414435034714275
-0.01913481345845731,-0.04414435034714275
-0.029877164873731592,-0.043472953383688104
0.03457694361791409,-0.04078736552986953
0.020477607385366595,-0.037094682230869
-0.01913481345845731,-0.03508049134050507
-0.011413748378728923,-0.035751888303959714
0.03054856183718624,-0.03776607919432364
0.032898451209277486,-0.03910887312123293
0.011749446860456245,-0.0387731746395056
-0.0016784924086366065,-0.036423285267414354
-0.04129091325246051,-0.03457694361791409
0.0006713969634546426,-0.03407339589532311
0.04129091325246051,-0.03440909437705043
-0.024505989166094453,-0.035751888303959714
-0.029877164873731592,-0.035751888303959714
0.019806210421911954,-0.03508049134050507
0.030884260318913552,-0.03440909437705043
-0.017792019531548024,-0.03440909437705043
-0.02719157701991302,-0.03508049134050507
0.04129091325246051,-0.03776607919432364
0.02584878309300374,-0.03927672236209659
-0.019806210421911954,-0.04011596856641489
-0.009063859006637675,-0.04078736552986953
0.03121995880064088,-0.04145876249332417
0.03659113450827802,-0.041794460975051496
0.013092240787365528,-0.03944457160296025
-0.007721065079728388,-0.03810177767605096
-0.050019073777370866,-0.03843747615777828
0.0023498893720912484,-0.03910887312123293
0.044647898069733724,-0.03910887312123293
-0.01913481345845731,-0.03860532539864195
-0.028198672465094988,-0.035751888303959714
0.021149004348821242,-0.0323949034866865
0.037262531471732654,-0.030045014114595252
-0.010406652933546959,-0.029037918669413288
-0.024505989166094453,-0.029037918669413288
0.03692683299000534,-0.030045014114595252
0.020813305867093918,-0.03105210955977722
-0.023834592202639806,-0.03105210955977722
-0.011749446860456245,-0.030380712596322572
0.03256275272755016,-0.029709315632867935
0.043305104142824444,-0.029037918669413288
0.024841687647821773,-0.028702220187685965
0.0023498893720912484,-0.029037918669413288
-0.0426337071793698,-0.03138780804150454
-0.007721065079728388,-0.03440909437705043
0.03189135576409552,-0.036423285267414354
-0.023163195239185166,-0.03659113450827802
-0.017792019531548024,-0.037094682230869
0.03390554665445944,-0.03776607919432364
0.049347676813916226,-0.036423285267414354
-0.0016784924086366065,-0.032730601968413826
-0.019806210421911954,-0.027023727779049357
0.03927672236209659,-0.024505989166094453
0.024505989166094453,-0.024338139925230793
-0.017792019531548024,-0.02584878309300374
-0.007049668116273747,-0.02853437094682231
0.03390554665445944,-0.030380712596322572
0.03189135576409552,-0.030380712596322572
0.006378271152819104,-0.029709315632867935
-0.017792019531548024,-0.030380712596322572
-0.06344701304646372,-0.03172350652323186
-0.017792019531548024,-0.03138780804150454
0.033234149691004806,-0.030716411078049892
-0.021149004348821242,-0.0323949034866865
-0.027862973983367664,-0.03440909437705043
0.025177386129549097,-0.037094682230869
0.03994811932555123,-0.03978027008468757
-0.011749446860456245,-0.041123064011596856
-0.02719157701991302,-0.040451667048142216
0.0379339284351873,-0.03843747615777828
0.021149004348821242,-0.03776607919432364
-0.021820401312275882,-0.03910887312123293
-0.016449225604638743,-0.042465857938506144
0.027862973983367664,-0.04414435034714275
0.035919737544823374,-0.043472953383688104
0.013092240787365528,-0.041794460975051496
-0.0030212863355458916,-0.041123064011596856
-0.04800488288700694,-0.04078736552986953
-0.0016784924086366065,-0.03910887312123293
0.03994811932555123,-0.03743038071259632
-0.021820401312275882,-0.03843747615777828
-0.029205767910276948,-0.03927672236209659
0.019470511940184634,-0.03910887312123293
0.029205767910276948,-0.03843747615777828
-0.014435034714274816,-0.03843747615777828
-0.024505989166094453,-0.0387731746395056
0.043976501106279084,-0.03659113450827802
0.02853437094682231,-0.03440909437705043
-0.016784924086366067,-0.033066300450141146
-0.010406652933546959,-0.0323949034866865
0.02887006942854963,-0.03121995880064088
0.03994811932555123,-0.029709315632867935
0.019806210421911954,-0.027695124742504008
-0.0016784924086366065,-0.027359426260776684
-0.0473334859235523,-0.027023727779049357
-0.005706874189364461,-0.027023727779049357
0.03659113450827802,-0.027023727779049357
-0.024841687647821773,-0.02668802929732204
-0.041962310215915156,-0.027695124742504008
0.005706874189364461,-0.029205767910276948
0.021149004348821242,-0.029205767910276948
-0.02652018005645838,-0.02853437094682231
-0.041962310215915156,-0.028030823224231328
0.023163195239185166,-0.0260166323338674
0.013092240787365528,-0.02584878309300374
-0.02752727550164034,-0.026352330815594724
-0.020477607385366595,-0.027862973983367664
0.022491798275730522,-0.029709315632867935
0.02853437094682231,-0.03138780804150454
0.009735255970092317,-0.036423285267414354
-0.005706874189364461,-0.04582284275577936
-0.0473334859235523,-0.057572289616235596
-0.0016784924086366065,-0.06797894254978255
0.03390554665445944,-0.0767071030746929
-0.029205767910276948,-0.08039978637369342
-0.035919737544823374,-0.0767071030746929
0.017120622568093383,-0.061432822156099784
0.03256275272755016,-0.03407339589532311
-0.012420843823910887,-0.0008392462043183033
-0.024505989166094453,0.020645456626230255
0.04095521477073319,0.02400244144350347
0.03121995880064088,0.012252994583047227
-0.014435034714274816,-0.004196231021591517
-0.01376363775082017,-0.019638361181048294
0.02652018005645838,-0.03172350652323186
0.029877164873731592,-0.03910887312123293
0.007721065079728388,-0.0426337071793698
-0.005706874189364461,-0.04313725490196078
-0.048676279850461586,-0.04213015945677882
-0.005706874189364461,-0.04145876249332417
0.029205767910276948,-0.041123064011596856
-0.02853437094682231,-0.041123064011596856
-0.03189135576409552,-0.04061951628900587
0.016784924086366067,-0.04078736552986953
0.04129091325246051,-0.040451667048142216
0.0010070954451819635,-0.03776607919432364
-0.015106431677729458,-0.035416189822232394
0.04061951628900587,-0.03440909437705043
0.01913481345845731,-0.035416189822232394
-0.01812771801327535,-0.03843747615777828
0.0010070954451819635,-0.03994811932555123
0.0520332646677348,-0.03860532539864195
0.05337605859464408,-0.03743038071259632
0.022491798275730522,-0.03843747615777828
0.004364080262455177,-0.040451667048142216
-0.03457694361791409,-0.04078736552986953
0.007721065079728388,-0.04145876249332417
0.043976501106279084,-0.042465857938506144
-0.01846341649500267,-0.04313725490196078
-0.03054856183718624,-0.04313725490196078
0.01376363775082017,-0.04313725490196078
0.035919737544823374,-0.043472953383688104
-0.010406652933546959,-0.041794460975051496
-0.029877164873731592,-0.03978027008468757
0.035248340581368734,-0.03843747615777828
0.021820401312275882,-0.03776607919432364
-0.02752727550164034,-0.03944457160296025
-0.017792019531548024,-0.041123064011596856
0.02584878309300374,-0.040451667048142216
0.033234149691004806,-0.03810177767605096
0.009063859006637675,-0.035919737544823374
-0.012756542305638208,-0.036423285267414354
-0.05740444037537193,-0.03776607919432364
-0.007049668116273747,-0.03860532539864195
0.033569848172732134,-0.03843747615777828
-0.027862973983367664,-0.03776607919432364
-0.033234149691004806,-0.037094682230869
0.013092240787365528,-0.037094682230869
0.02652018005645838,-0.03810177767605096
-0.025177386129549097,-0.03843747615777828
-0.03826962691691462,-0.03843747615777828
0.03457694361791409,-0.03927672236209659
0.02652018005645838,-0.03978027008468757
-0.021820401312275882,-0.03927672236209659
-0.012420843823910887,-0.03978027008468757
0.020477607385366595,-0.041794460975051496
0.025177386129549097,-0.04213015945677882
0.014435034714274816,-0.041123064011596856
0.0010070954451819635,-0.04078736552986953
-0.044647898069733724,-0.03994811932555123
0.009735255970092317,-0.041123064011596856
0.044647898069733724,-0.04313725490196078
-0.021149004348821242,-0.0426337071793698
-0.03256275272755016,-0.03978027008468757
0.017120622568093383,-0.035751888303959714
0.03457694361791409,-0.03373769741359579
-0.0157778286411841,-0.03373769741359579
-0.029205767910276948,-0.03373769741359579
0.03189135576409552,-0.03407339589532311
0.024505989166094453,-0.03508049134050507
-0.021820401312275882,-0.036423285267414354
-0.014099336232547494,-0.03776607919432364
0.029205767910276948,-0.03776607919432364
0.033234149691004806,-0.035751888303959714
0.007385366598001068,-0.03440909437705043
-0.004028381780727854,-0.03508049134050507
-0.04129091325246051,-0.03474479285877775
0.0023498893720912484,-0.03440909437705043
0.02719157701991302,-0.03508049134050507
-0.03659113450827802,-0.03407339589532311
-0.03659113450827802,-0.033066300450141146
0.02853437094682231,-0.03172350652323186
0.041962310215915156,-0.03054856183718624
-0.015106431677729458,-0.029037918669413288
-0.029877164873731592,-0.028366521705958644
0.037262531471732654,-0.02719157701991302
0.022156099794003202,-0.026352330815594724
-0.02719157701991302,-0.027695124742504008
-0.01913481345845731,-0.030380712596322572
0.03457694361791409,-0.03138780804150454
0.04599069199664301,-0.03172350652323186
0.022491798275730522,-0.03105210955977722
0.0010070954451819635,-0.030380712596322572
-0.050019073777370866,-0.03172350652323186
-0.004364080262455177,-0.033066300450141146
0.04061951628900587,-0.03373769741359579
-0.021820401312275882,-0.03373769741359579
-0.02584878309300374,-0.033234149691004806
0.020477607385366595,-0.03407339589532311
0.04129091325246051,-0.03440909437705043
-0.008392462043183033,-0.03373769741359579
-0.02853437094682231,-0.033401998931868467
0.035919737544823374,-0.03373769741359579
0.01846341649500267,-0.03424124513618677
-0.029877164873731592,-0.03440909437705043
-0.021820401312275882,-0.03508049134050507
0.023163195239185166,-0.03457694361791409
0.029877164873731592,-0.033066300450141146
0.007049668116273747,-0.03105210955977722
-0.0030212863355458916,-0.030045014114595252
-0.042298008697642483,-0.029709315632867935
0.007049668116273747,-0.029709315632867935
0.0426337071793698,-0.03105210955977722
-0.02349889372091249,-0.033234149691004806
-0.03390554665445944,-0.035751888303959714
0.007721065079728388,-0.037094682230869
0.03121995880064088,-0.03743038071259632
-0.020477607385366595,-0.037094682230869
-0.03256275272755016,-0.03843747615777828
0.033234149691004806,-0.040451667048142216
0.01846341649500267,-0.042465857938506144
-0.019806210421911954,-0.042801556420233464
-0.010070954451819639,-0.042801556420233464
0.032898451209277486,-0.042801556420233464
0.03189135576409552,-0.04213015945677882
0.007721065079728388,-0.04129091325246051
-0.003692683299000534,-0.03978027008468757
-0.04129091325246051,-0.03910887312123293
0.007721065079728388,-0.03810177767605096
0.041962310215915156,-0.03810177767605096
-0.02719157701991302,-0.0387731746395056
-0.0379339284351873,-0.040451667048142216
-0.0016784924086366065,-0.03978027008468757
0.012756542305638208,-0.03743038071259632
-0.02853437094682231,-0.035416189822232394
-0.04061951628900587,-0.03508049134050507
0.03189135576409552,-0.03508049134050507
0.011749446860456245,-0.03373769741359579
-0.035248340581368734,-0.032730601968413826
-0.017792019531548024,-0.03424124513618677
0.03457694361791409,-0.035416189822232394
0.043976501106279084,-0.03508049134050507
0.01846341649500267,-0.03407339589532311
-0.0030212863355458916,-0.033066300450141146
-0.054047455558098714,-0.032730601968413826
-0.009735255970092317,-0.03508049134050507
0.03054856183718624,-0.0379339284351873
-0.024505989166094453,-0.0387731746395056
-0.03189135576409552,-0.03743038071259632
0.013092240787365528,-0.03457694361791409
0.02652018005645838,-0.03172350652323186
-0.025177386129549097,-0.029709315632867935
-0.03659113450827802,-0.027359426260776684
0.041962310215915156,-0.02719157701991302
0.0426337071793698,-0.027695124742504008
-0.0003356984817273213,-0.028702220187685965
0.006378271152819104,-0.03121995880064088
0.04129091325246051,-0.0323949034866865
0.04095521477073319,-0.03138780804150454
0.011749446860456245,-0.03105210955977722
-0.008392462043183033,-0.033066300450141146
-0.04800488288700694,-0.036423285267414354
0.002014190890363927,-0.03743038071259632
0.03860532539864195,-0.037094682230869
-0.022491798275730522,-0.03810177767605096
-0.024505989166094453,-0.03944457160296025
0.01812771801327535,-0.040451667048142216
0.03054856183718624,-0.041794460975051496
-0.022156099794003202,-0.04313725490196078
-0.029205767910276948,-0.042465857938506144
0.043305104142824444,-0.041794460975051496
0.03189135576409552,-0.041123064011596856
-0.017792019531548024,-0.040451667048142216
-0.012420843823910887,-0.03776607919432364
0.027862973983367664,-0.03189135576409552
0.03390554665445944,-0.024673838406958113
0.009735255970092317,-0.021988250553139542
-0.008392462043183033,-0.02265964751659419
-0.043976501106279084,-0.025009536888685433
-0.0003356984817273213,-0.027695124742504008
0.04095521477073319,-0.030716411078049892
-0.020477607385366595,-0.03205920500495917
-0.02853437094682231,-0.03172350652323186
0.017792019531548024,-0.030380712596322572
0.03457694361791409,-0.030045014114595252
-0.020477607385366595,-0.03138780804150454
-0.03189135576409552,-0.033234149691004806
0.03457694361791409,-0.03508049134050507
0.015106431677729458,-0.037094682230869
-0.02719157701991302,-0.03843747615777828
-0.016449225604638743,-0.036423285267414354
0.025177386129549097,-0.03105210955977722
0.03054856183718624,-0.025009536888685433
0.007721065079728388,-0.021820401312275882
-0.0030212863355458916,-0.022491798275730522
-0.04599069199664301,-0.025009536888685433
-0.0023498893720912484,-0.02937361715114061
0.03659113450827802,-0.03373769741359579
-0.01913481345845731,-0.035416189822232394
-0.02752727550164034,-0.03373769741359579
0.0157778286411841,-0.0323949034866865
0.033234149691004806,-0.033066300450141146
-0.01846341649500267,-0.033066300450141146
-0.027862973983367664,-0.032730601968413826
0.03826962691691462,-0.03256275272755016
0.02853437094682231,-0.032730601968413826
-0.01913481345845731,-0.03440909437705043
-0.007049668116273747,-0.03675898374914168
0.037262531471732654,-0.0379339284351873
0.03994811932555123,-0.036423285267414354
0.011749446860456245,-0.035248340581368734
-0.008392462043183033,-0.035248340581368734
-0.050690470740825506,-0.036423285267414354
-0.003692683299000534,-0.0379339284351873
0.03994811932555123,-0.03843747615777828
-0.024505989166094453,-0.0379339284351873
-0.035919737544823374,-0.03843747615777828
0.013092240787365528,-0.03776607919432364
0.03457694361791409,-0.037094682230869
-0.01846341649500267,-0.037094682230869
-0.02853437094682231,-0.037094682230869
0.03927672236209659,-0.03675898374914168
0.01846341649500267,-0.03743038071259632
-0.029877164873731592,-0.03843747615777828
-0.01812771801327535,-0.03743038071259632
0.025177386129549097,-0.03608758678568704
0.035919737544823374,-0.03373769741359579
0.01846341649500267,-0.033066300450141146
-0.0003356984817273213,-0.03508049134050507
-0.048676279850461586,-0.035751888303959714
-0.008392462043183033,-0.036423285267414354
0.03189135576409552,-0.03675898374914168
-0.03390554665445944,-0.037094682230869
-0.0426337071793698,-0.03776607919432364
0.019470511940184634,-0.03810177767605096
0.03994811932555123,-0.03910887312123293
-0.008392462043183033,-0.040451667048142216
-0.015106431677729458,-0.041123064011596856
0.04666208896009766,-0.04213015945677882
0.029205767910276948,-0.043472953383688104
-0.019470511940184634,-0.043472953383688104
-0.012420843823910887,-0.043808651865415424
0.027862973983367664,-0.043808651865415424
0.03692683299000534,-0.044815747310597384
0.012420843823910887,-0.044480048828870064
-0.0030212863355458916,-0.042801556420233464
-0.04531929503318838,-0.041794460975051496
-0.003692683299000534,-0.042465857938506144
0.026184481574731057,-0.041794460975051496
-0.03390554665445944,-0.04095521477073319
-0.029877164873731592,-0.04129091325246051
0.022491798275730522,-0.04313725490196078
0.035248340581368734,-0.04582284275577936
-0.01812771801327535,-0.04750133516441596
-0.02887006942854963,-0.04649423971923399
0.035248340581368734,-0.04649423971923399
0.01913481345845731,-0.04716563668268864
-0.024505989166094453,-0.04582284275577936
-0.017792019531548024,-0.043808651865415424
0.023163195239185166,-0.044480048828870064
0.023834592202639806,-0.04716563668268864
-0.0023498893720912484,-0.04582284275577936
-0.014099336232547494,-0.043472953383688104
-0.049347676813916226,-0.04145876249332417
0.0010070954451819635,-0.041123064011596856
0.044647898069733724,-0.041123064011596856
-0.016449225604638743,-0.040451667048142216
-0.026184481574731057,-0.04078736552986953
0.023834592202639806,-0.03994811932555123
0.0426337071793698,-0.03843747615777828
-0.007049668116273747,-0.036423285267414354
-0.021820401312275882,-0.03474479285877775
0.04599069199664301,-0.032730601968413826
0.0379339284351873,-0.03105210955977722
-0.005706874189364461,-0.03105210955977722
-0.007049668116273747,-0.032730601968413826
0.0315556572823682,-0.03390554665445944
0.03860532539864195,-0.032730601968413826
0.009063859006637675,-0.03138780804150454
-0.0023498893720912484,-0.03121995880064088
-0.041626611734187836,-0.0323949034866865
0.0023498893720912484,-0.033234149691004806
0.04095521477073319,-0.03508049134050507
-0.021820401312275882,-0.03508049134050507
-0.041962310215915156,-0.03440909437705043
0.0050354772259098195,-0.03373769741359579
0.023834592202639806,-0.03373769741359579
-0.022156099794003202,-0.03457694361791409
-0.04061951628900587,-0.03373769741359579
0.023834592202639806,-0.03256275272755016
0.017120622568093383,-0.03105210955977722
-0.025177386129549097,-0.028366521705958644
-0.016784924086366067,-0.027023727779049357
0.02719157701991302,-0.026352330815594724
0.02652018005645838,-0.025680933852140077
0.0016784924086366065,-0.02366674296177615
-0.008392462043183033,-0.020645456626230255
-0.041962310215915156,-0.01896696421759365
0.007049668116273747,-0.019638361181048294
0.04800488288700694,-0.021652552071412222
-0.019806210421911954,-0.023163195239185166
-0.03659113450827802,-0.02400244144350347
0.015442130159456776,-0.02333104448004883
0.03659113450827802,-0.021988250553139542
-0.024505989166094453,-0.022323949034866862
-0.04129091325246051,-0.024338139925230793
0.01913481345845731,-0.0260166323338674
0.0010070954451819635,-0.0260166323338674
-0.035248340581368734,-0.02652018005645838
-0.010070954451819639,-0.027695124742504008
0.049347676813916226,-0.029037918669413288
0.060761425192645144,-0.030045014114595252
0.03457694361791409,-0.030716411078049892
0.006042572671091783,-0.0323949034866865
-0.0473334859235523,-0.03440909437705043
-0.0030212863355458916,-0.035751888303959714
0.043640802624551764,-0.036423285267414354
-0.015106431677729458,-0.03675898374914168
-0.02853437094682231,-0.03776607919432364
0.0157778286411841,-0.040451667048142216
0.029205767910276948,-0.043808651865415424
-0.017792019531548024,-0.04582284275577936
-0.02652018005645838,-0.04615854123750667
0.044647898069733724,-0.04582284275577936
0.03121995880064088,-0.04599069199664301
-0.011749446860456245,-0.04615854123750667
-0.0050354772259098195,-0.04649423971923399
0.029205767910276948,-0.04515144579232471
0.0379339284351873,-0.04095521477073319
0.0157778286411841,-0.03843747615777828
-0.004364080262455177,-0.03944457160296025
-0.058411535820553896,-0.041794460975051496
-0.016449225604638743,-0.043472953383688104
0.023834592202639806,-0.04548714427405204
-0.0379339284351873,-0.04313725490196078
-0.049347676813916226,-0.0387731746395056
0.0050354772259098195,-0.036423285267414354
0.023834592202639806,-0.037094682230869
-0.022491798275730522,-0.03810177767605096
-0.0379339284351873,-0.03776607919432364
0.03390554665445944,-0.036423285267414354
0.022491798275730522,-0.03407339589532311
-0.023163195239185166,-0.0323949034866865
-0.009063859006637675,-0.03172350652323186
0.043640802624551764,-0.03172350652323186
0.0426337071793698,-0.03105210955977722
0.014435034714274816,-0.030380712596322572
0.0010070954451819635,-0.028702220187685965
-0.043305104142824444,-0.02719157701991302
0.006378271152819104,-0.027359426260776684
0.04666208896009766,-0.028366521705958644
-0.016449225604638743,-0.029037918669413288
-0.029877164873731592,-0.029037918669413288
0.021149004348821242,-0.028702220187685965
0.035919737544823374,-0.029205767910276948
-0.016449225604638743,-0.03138780804150454
-0.03121995880064088,-0.03373769741359579
0.04129091325246051,-0.033066300450141146
0.033234149691004806,-0.0323949034866865
-0.013092240787365528,-0.033234149691004806
-0.011078049897001601,-0.036423285267414354
0.029205767910276948,-0.03810177767605096
0.03121995880064088,-0.03910887312123293
0.013092240787365528,-0.04011596856641489
-0.008392462043183033,-0.041794460975051496
-0.055390249485008015,-0.04213015945677882
-0.011078049897001601,-0.041962310215915156
0.02719157701991302,-0.041123064011596856
-0.03390554665445944,-0.03961242084382391
-0.03826962691691462,-0.0379339284351873
0.0050354772259098195,-0.036423285267414354
0.020813305867093918,-0.036423285267414354
-0.029205767910276948,-0.036423285267414354
-0.0473334859235523,-0.03675898374914168
0.016449225604638743,-0.037262531471732654
-0.006042572671091783,-0.037094682230869
-0.05471885252155337,-0.035751888303959714
-0.035919737544823374,-0.03508049134050507
0.029205767910276948,-0.035416189822232394
0.048676279850461586,-0.03508049134050507
0.024505989166094453,-0.03508049134050507
0.014435034714274816,-0.03508049134050507
-0.03121995880064088,-0.03440909437705043
0.014435034714274816,-0.03373769741359579
0.05673304341191729,-0.03373769741359579
-0.004364080262455177,-0.035919737544823374
-0.011078049897001601,-0.03776607919432364
0.03189135576409552,-0.03910887312123293
0.04800488288700694,-0.040451667048142216
-0.003692683299000534,-0.041794460975051496
-0.015106431677729458,-0.042465857938506144
0.055390249485008015,-0.041123064011596856
0.037262531471732654,-0.03776607919432364
-0.008392462043183033,-0.0323949034866865
-0.005706874189364461,-0.02719157701991302
0.03189135576409552,-0.027695124742504008
0.03457694361791409,-0.030380712596322572
0.0157778286411841,-0.03172350652323186
0.003692683299000534,-0.03172350652323186
-0.042298008697642483,-0.03138780804150454
0.0030212863355458916,-0.033066300450141146
0.043976501106279084,-0.035416189822232394
-0.012420843823910887,-0.036423285267414354
-0.023163195239185166,-0.03508049134050507
0.025177386129549097,-0.033066300450141146
0.037262531471732654,-0.0323949034866865
-0.01376363775082017,-0.030380712596322572
-0.01846341649500267,-0.030045014114595252
0.04800488288700694,-0.03189135576409552
0.029205767910276948,-0.03390554665445944
-0.017792019531548024,-0.036423285267414354
-0.006378271152819104,-0.03944457160296025
0.029205767910276948,-0.04313725490196078
0.03189135576409552,-0.04582284275577936
0.007049668116273747,-0.04582284275577936
-0.009735255970092317,-0.044815747310597384
-0.044647898069733724,-0.04313725490196078
0.0050354772259098195,-0.041123064011596856
0.03860532539864195,-0.03910887312123293
-0.021820401312275882,-0.03843747615777828
-0.03121995880064088,-0.0387731746395056
0.007721065079728388,-0.04061951628900587
0.022491798275730522,-0.043808651865415424
-0.02584878309300374,-0.04515144579232471
-0.035248340581368734,-0.043808651865415424
0.02752727550164034,-0.04313725490196078
0.01846341649500267,-0.043808651865415424
-0.027862973983367664,-0.043808651865415424
-0.017792019531548024,-0.0426337071793698
0.020813305867093918,-0.04213015945677882
0.03189135576409552,-0.041794460975051496
0.007385366598001068,-0.04145876249332417
-0.0030212863355458916,-0.04129091325246051
-0.04061951628900587,-0.041794460975051496
0.013092240787365528,-0.041794460975051496
0.050690470740825506,-0.041794460975051496
-0.012756542305638208,-0.04145876249332417
-0.025177386129549097,-0.04011596856641489
0.021820401312275882,-0.03810177767605096
0.03994811932555123,-0.03810177767605096
-0.007049668116273747,-0.0387731746395056
-0.020813305867093918,-0.03944457160296025
0.03927672236209659,-0.03944457160296025
0.023834592202639806,-0.03843747615777828
-0.02719157701991302,-0.036423285267414354
-0.021820401312275882,-0.03508049134050507
0.027862973983367664,-0.03440909437705043
0.029877164873731592,-0.03508049134050507
-0.0023498893720912484,-0.03373769741359579
-0.021149004348821242,-0.03172350652323186
-0.060761425192645144,-0.029709315632867935
-0.015106431677729458,-0.028366521705958644
0.03054856183718624,-0.029037918669413288
-0.03256275272755016,-0.029709315632867935
-0.043976501106279084,-0.030380712596322572
0.007385366598001068,-0.030380712596322572
0.023834592202639806,-0.02887006942854963
-0.02584878309300374,-0.027862973983367664
-0.04061951628900587,-0.027695124742504008
0.02652018005645838,-0.028366521705958644
0.015106431677729458,-0.0260166323338674
-0.035248340581368734,-0.02366674296177615
-0.017792019531548024,-0.022491798275730522
0.0379339284351873,-0.022995345998321506
0.05337605859464408,-0.024505989166094453
0.0315556572823682,-0.0260166323338674
0.011078049897001601,-0.027023727779049357
-0.03994811932555123,-0.025680933852140077
0.0016784924086366065,-0.024338139925230793
0.033234149691004806,-0.024338139925230793
-0.03121995880064088,-0.025680933852140077
-0.03927672236209659,-0.028366521705958644
0.01846341649500267,-0.03138780804150454
0.041962310215915156,-0.030212863355458915
-0.01376363775082017,-0.027695124742504008
-0.03121995880064088,-0.027023727779049357
0.03390554665445944,-0.027695124742504008
0.01846341649500267,-0.029877164873731592
-0.024505989166094453,-0.03256275272755016
-0.009735255970092317,-0.03440909437705043
0.02584878309300374,-0.036423285267414354
0.024505989166094453,-0.03675898374914168
0.0050354772259098195,-0.036423285267414354
-0.004364080262455177,-0.037094682230869
-0.044647898069733724,-0.03944457160296025
-0.0003356984817273213,-0.042465857938506144
0.0426337071793698,-0.04515144579232471
-0.021820401312275882,-0.04548714427405204
-0.03424124513618677,-0.04515144579232471
0.014435034714274816,-0.04599069199664301
0.03121995880064088,-0.04582284275577936
-0.016784924086366067,-0.04548714427405204
-0.029877164873731592,-0.043808651865415424
0.03457694361791409,-0.041123064011596856
0.022491798275730522,-0.0387731746395056
-0.021820401312275882,-0.03843747615777828
-0.01913481345845731,-0.03860532539864195
0.022827496757457846,-0.03944457160296025
0.02652018005645838,-0.04129091325246051
-0.0003356984817273213,-0.04213015945677882
-0.021149004348821242,-0.04129091325246051
-0.06277561608300908,-0.040451667048142216
-0.01376363775082017,-0.03910887312123293
0.030212863355458915,-0.03843747615777828
-0.029877164873731592,-0.03944457160296025
-0.0379339284351873,-0.04078736552986953
0.015106431677729458,-0.041962310215915156
0.03659113450827802,-0.04129091325246051
-0.015106431677729458,-0.03910887312123293
-0.03054856183718624,-0.03776607919432364
0.03927672236209659,-0.03910887312123293
0.023163195239185166,-0.041123064011596856
-0.022491798275730522,-0.041123064011596856
-0.011078049897001601,-0.03843747615777828
0.03256275272755016,-0.03440909437705043
0.035919737544823374,-0.03138780804150454
0.011749446860456245,-0.03172350652323186
-0.003692683299000534,-0.03440909437705043
-0.043305104142824444,-0.035416189822232394
0.014435034714274816,-0.03172350652323186
0.05874723430228122,-0.02719157701991302
-0.006378271152819104,-0.027023727779049357
-0.020813305867093918,-0.029037918669413288
0.02584878309300374,-0.03172350652323186
0.04599069199664301,-0.03138780804150454
0.003356984817273213,-0.03105210955977722
-0.003692683299000534,-0.03105210955977722
0.05874723430228122,-0.03105210955977722
0.04129091325246051,-0.030045014114595252
-0.005706874189364461,-0.028702220187685965
-0.0003356984817273213,-0.027695124742504008
0.03860532539864195,-0.026352330815594724
0.03927672236209659,-0.025009536888685433
0.010406652933546959,-0.022323949034866862
-0.008392462043183033,-0.020981155107957578
-0.03927672236209659,-0.021988250553139542
0.0157778286411841,-0.02400244144350347
0.05874723430228122,-0.024338139925230793
-0.009735255970092317,-0.02333104448004883
-0.019806210421911954,-0.021988250553139542
0.021149004348821242,-0.022323949034866862
0.03659113450827802,-0.025009536888685433
-0.01846341649500267,-0.027023727779049357
-0.03256275272755016,-0.02853437094682231
0.03994811932555123,-0.029037918669413288
0.02887006942854963,-0.029709315632867935
-0.017792019531548024,-0.03138780804150454
-0.01812771801327535,-0.03440909437705043
0.024841687647821773,-0.03776607919432364
0.029205767910276948,-0.03810177767605096
0.009063859006637675,-0.03608758678568704
-0.004364080262455177,-0.03474479285877775
-0.0473334859235523,-0.03659113450827802
-0.0003356984817273213,-0.03978027008468757
0.037262531471732654,-0.04313725490196078
-0.02719157701991302,-0.04515144579232471
-0.0426337071793698,-0.044480048828870064
0.008392462043183033,-0.043976501106279084
0.029205767910276948,-0.041123064011596856
-0.02584878309300374,-0.03675898374914168
-0.0379339284351873,-0.032730601968413826
0.021149004348821242,-0.03105210955977722
0.009063859006637675,-0.03172350652323186
-0.03256275272755016,-0.03407339589532311
-0.017120622568093383,-0.036423285267414354
0.02719157701991302,-0.03776607919432364
0.03390554665445944,-0.03810177767605096
0.012420843823910887,-0.0379339284351873
-0.005706874189364461,-0.03910887312123293
-0.0520332646677348,-0.04078736552986953
-0.003692683299000534,-0.042465857938506144
0.033234149691004806,-0.042801556420233464
-0.03054856183718624,-0.042465857938506144
-0.03860532539864195,-0.04313725490196078
0.009063859006637675,-0.044480048828870064
0.03256275272755016,-0.04582284275577936
-0.01846341649500267,-0.04515144579232471
-0.0379339284351873,-0.04414435034714275
0.025177386129549097,-0.04313725490196078
0.015442130159456776,-0.041794460975051496
-0.03390554665445944,-0.040451667048142216
-0.02584878309300374,-0.03843747615777828
0.029877164873731592,-0.03440909437705043
0.03659113450827802,-0.03172350652323186
0.007049668116273747,-0.030716411078049892
-0.012420843823910887,-0.0323949034866865
-0.044983596551461044,-0.03407339589532311
0.005706874189364461,-0.036423285267414354
0.03994811932555123,-0.03860532539864195
-0.033234149691004806,-0.04145876249332417
-0.050019073777370866,-0.043808651865415424
0.0010070954451819635,-0.044815747310597384
0.029877164873731592,-0.04582284275577936
-0.009735255970092317,-0.04716563668268864
-0.021820401312275882,-0.04750133516441596
0.035919737544823374,-0.04531929503318838
0.017120622568093383,-0.04313725490196078
-0.02719157701991302,-0.04078736552986953
-0.01913481345845731,-0.03910887312123293
0.02652018005645838,-0.037094682230869
0.03256275272755016,-0.037094682230869
0.011078049897001601,-0.037094682230869
-0.005706874189364461,-0.03743038071259632
-0.04800488288700694,-0.03843747615777828
-0.003692683299000534,-0.04011596856641489
0.0379339284351873,-0.041794460975051496
-0.021149004348821242,-0.041962310215915156
-0.033234149691004806,-0.041123064011596856
0.0157778286411841,-0.03978027008468757
0.037262531471732654,-0.03978027008468757
-0.007049668116273747,-0.041123064011596856
-0.02719157701991302,-0.04061951628900587
0.03189135576409552,-0.0387731746395056
0.025177386129549097,-0.036423285267414354
-0.011413748378728923,-0.035416189822232394
-0.009735255970092317,-0.036423285267414354
0.020477607385366595,-0.035919737544823374
0.02887006942854963,-0.03508049134050507
0.009735255970092317,-0.033401998931868467
-0.004364080262455177,-0.03390554665445944
-0.04599069199664301,-0.036423285267414354
-0.006378271152819104,-0.037262531471732654
0.037262531471732654,-0.03675898374914168
-0.024505989166094453,-0.03558403906309605
-0.02954146639200427,-0.03407339589532311
0.022491798275730522,-0.03440909437705043
0.0426337071793698,-0.036423285267414354
-0.009735255970092317,-0.03810177767605096
-0.01913481345845731,-0.0387731746395056
0.043976501106279084,-0.0387731746395056
0.03256275272755016,-0.03978027008468757
-0.009735255970092317,-0.03910887312123293
-0.0003356984817273213,-0.03843747615777828
0.041962310215915156,-0.03860532539864195
0.03390554665445944,-0.03927672236209659
0.013092240787365528,-0.04078736552986953
-0.004364080262455177,-0.041794460975051496
-0.048676279850461586,-0.04213015945677882
0.0023498893720912484,-0.042801556420233464
0.03994811932555123,-0.04313725490196078
-0.02584878309300374,-0.042465857938506144
-0.03927672236209659,-0.04078736552986953
0.013092240787365528,-0.03776607919432364
0.04061951628900587,-0.03172350652323186
-0.0050354772259098195,-0.025009536888685433
-0.024505989166094453,-0.019302662699320974
0.037262531471732654,-0.016617074845502403
0.013092240787365528,-0.016617074845502403
-0.022491798275730522,-0.017624170290684367
-0.004364080262455177,-0.020477607385366595
0.03121995880064088,-0.023163195239185166
0.027862973983367664,-0.027695124742504008
0.007049668116273747,-0.03172350652323186
-0.0030212863355458916,-0.033401998931868467
-0.05438315403982604,-0.03172350652323186
-0.015106431677729458,-0.029205767910276948
0.022156099794003202,-0.028702220187685965
-0.035919737544823374,-0.029037918669413288
-0.029877164873731592,-0.029037918669413288
0.025177386129549097,-0.029709315632867935
0.03189135576409552,-0.03138780804150454
-0.027862973983367664,-0.033066300450141146
-0.05337605859464408,-0.03390554665445944
0.0157778286411841,-0.035248340581368734
0.005706874189364461,-0.036423285267414354
-0.035919737544823374,-0.03675898374914168
-0.01376363775082017,-0.03776607919432364
0.03860532539864195,-0.03810177767605096
0.05035477225909819,-0.03843747615777828
0.02652018005645838,-0.03927672236209659
0.007049668116273747,-0.0387731746395056
-0.033234149691004806,-0.03675898374914168
0.007721065079728388,-0.03373769741359579
0.041962310215915156,-0.03105210955977722
-0.012420843823910887,-0.030716411078049892
-0.015106431677729458,-0.029709315632867935
0.02752727550164034,-0.027695124742504008
0.04129091325246051,-0.025009536888685433
-0.011078049897001601,-0.025009536888685433
-0.022156099794003202,-0.025009536888685433
0.044647898069733724,-0.025009536888685433
0.03054856183718624,-0.0260166323338674
-0.011749446860456245,-0.028366521705958644
-0.002014190890363927,-0.03205920500495917
0.03994811932555123,-0.03659113450827802
0.03860532539864195,-0.03944457160296025
0.009735255970092317,-0.04078736552986953
-0.0003356984817273213,-0.04213015945677882
-0.044647898069733724,-0.04078736552986953
0.009735255970092317,-0.03407339589532311
0.05740444037537193,-0.025680933852140077
-0.005706874189364461,-0.01560997940032044
-0.023163195239185166,-0.009063859006637675
0.01846341649500267,-0.009567406729228655
0.04061951628900587,-0.014938582436865796
-0.005706874189364461,-0.020981155107957578
-0.0157778286411841,-0.02584878309300374
0.051361867704280154,-0.029205767910276948
0.03189135576409552,-0.03105210955977722
-0.007385366598001068,-0.033234149691004806
0.006042572671091783,-0.035751888303959714
0.043305104142824444,-0.03675898374914168
0.03994811932555123,-0.03743038071259632
0.013092240787365528,-0.03843747615777828
-0.003692683299000534,-0.03843747615777828
-0.04666208896009766,-0.03843747615777828
-0.005706874189364461,-0.03843747615777828
0.033234149691004806,-0.03810177767605096
-0.024505989166094453,-0.03776607919432364
-0.037262531471732654,-0.0379339284351873
0.007049668116273747,-0.03910887312123293
0.022491798275730522,-0.04078736552986953
-0.02752727550164034,-0.041794460975051496
-0.04061951628900587,-0.042465857938506144
0.027862973983367664,-0.04313725490196078
0.010406652933546959,-0.04615854123750667
-0.03659113450827802,-0.049515526054779886
-0.02719157701991302,-0.049515526054779886
0.023834592202639806,-0.0481727321278706
0.03994811932555123,-0.0481727321278706
0.01846341649500267,-0.048508430609597926
-0.0050354772259098195,-0.04716563668268864
-0.048676279850461586,-0.044815747310597384
-0.004364080262455177,-0.03978027008468757
0.03659113450827802,-0.03440909437705043
-0.01913481345845731,-0.03373769741359579
-0.02853437094682231,-0.03675898374914168
0.01846341649500267,-0.03743038071259632
0.027862973983367664,-0.03659113450827802
-0.03121995880064088,-0.03692683299000534
-0.05270466163118945,-0.037094682230869
0.007721065079728388,-0.03675898374914168
0.006378271152819104,-0.03608758678568704
-0.03054856183718624,-0.035751888303959714
-0.029877164873731592,-0.036423285267414354
0.0050354772259098195,-0.037094682230869
0.010406652933546959,-0.035751888303959714
-0.003356984817273213,-0.033401998931868467
-0.025177386129549097,-0.03205920500495917
-0.06848249027237353,-0.0323949034866865
-0.017120622568093383,-0.03474479285877775
0.022491798275730522,-0.03659113450827802
-0.04666208896009766,-0.03843747615777828
-0.06210421911955444,-0.03910887312123293
-0.013092240787365528,-0.03776607919432364
0.007721065079728388,-0.037094682230869
-0.02584878309300374,-0.03843747615777828
-0.03659113450827802,-0.03810177767605096
0.019470511940184634,-0.036423285267414354
0.0023498893720912484,-0.035751888303959714
-0.03121995880064088,-0.035751888303959714
-0.011413748378728923,-0.035751888303959714
0.033234149691004806,-0.037094682230869
0.029205767910276948,-0.03978027008468757
0.0010070954451819635,-0.04313725490196078
-0.017792019531548024,-0.044815747310597384
-0.06277561608300908,-0.044480048828870064
-0.006378271152819104,-0.04313725490196078
0.041962310215915156,-0.041123064011596856
-0.026184481574731057,-0.03810177767605096
-0.033234149691004806,-0.036423285267414354
0.014435034714274816,-0.036423285267414354
0.027862973983367664,-0.035751888303959714
-0.024505989166094453,-0.03440909437705043
-0.0379339284351873,-0.03440909437705043
0.023163195239185166,-0.03675898374914168
0.015442130159456776,-0.03776607919432364
-0.016784924086366067,-0.03860532539864195
0.003356984817273213,-0.03843747615777828
0.0473334859235523,-0.03810177767605096
0.044647898069733724,-0.03843747615777828
0.021149004348821242,-0.03843747615777828
0.006378271152819104,-0.03910887312123293
-0.0379339284351873,-0.03910887312123293
0.004364080262455177,-0.03910887312123293
0.0426337071793698,-0.03910887312123293
-0.014435034714274816,-0.03843747615777828
-0.025177386129549097,-0.03776607919432364
0.017120622568093383,-0.03692683299000534
0.03121995880064088,-0.035919737544823374
-0.013092240787365528,-0.03407339589532311
-0.024505989166094453,-0.03373769741359579
0.03994811932555123,-0.033066300450141146
0.03054856183718624,-0.03138780804150454
-0.016449225604638743,-0.03138780804150454
-0.011078049897001601,-0.032730601968413826
0.04129091325246051,-0.032730601968413826
0.04666208896009766,-0.03105210955977722
0.02584878309300374,-0.028702220187685965
0.012420843823910887,-0.029037918669413288
-0.03390554665445944,-0.030380712596322572
0.011749446860456245,-0.029037918669413288
0.050690470740825506,-0.027695124742504008
-0.012756542305638208,-0.027023727779049357
-0.019806210421911954,-0.029037918669413288
0.035919737544823374,-0.032730601968413826
0.050690470740825506,-0.03457694361791409
-0.0030212863355458916,-0.03440909437705043
-0.017792019531548024,-0.03407339589532311
0.04800488288700694,-0.035248340581368734
0.043640802624551764,-0.035751888303959714
-0.0010070954451819635,-0.035751888303959714
0.0003356984817273213,-0.036423285267414354
0.04531929503318838,-0.03608758678568704
0.0520332646677348,-0.035751888303959714
0.033234149691004806,-0.035751888303959714
0.017120622568093383,-0.035751888303959714
-0.022491798275730522,-0.035416189822232394
0.016449225604638743,-0.035416189822232394
0.050019073777370866,-0.035919737544823374
-0.009735255970092317,-0.035248340581368734
-0.024505989166094453,-0.03407339589532311
0.017120622568093383,-0.03390554665445944
0.037262531471732654,-0.03508049134050507
-0.0003356984817273213,-0.03474479285877775
-0.007049668116273747,-0.03508049134050507
0.059754329747463183,-0.03508049134050507
0.0426337071793698,-0.03508049134050507
-0.008392462043183033,-0.035416189822232394
-0.005706874189364461,-0.03675898374914168
0.03390554665445944,-0.03910887312123293
0.03558403906309605,-0.03978027008468757
0.012420843823910887,-0.0379339284351873
-0.008392462043183033,-0.035751888303959714
-0.05270466163118945,-0.03508049134050507
-0.005706874189364461,-0.03407339589532311
0.0315556572823682,-0.033066300450141146
-0.03121995880064088,-0.032730601968413826
-0.043305104142824444,-0.032730601968413826
0.010406652933546959,-0.03205920500495917
0.024841687647821773,-0.03138780804150454
-0.024505989166094453,-0.030380712596322572
-0.035919737544823374,-0.028702220187685965
0.029205767910276948,-0.029205767910276948
0.010406652933546959,-0.030380712596322572
-0.03121995880064088,-0.03105210955977722
-0.01846341649500267,-0.03121995880064088
0.02652018005645838,-0.0323949034866865
0.023834592202639806,-0.033066300450141146
-0.004364080262455177,-0.03373769741359579
-0.021820401312275882,-0.03373769741359579
-0.054047455558098714,-0.0323949034866865
0.007721065079728388,-0.03189135576409552
0.0520332646677348,-0.03172350652323186
-0.015442130159456776,-0.03105210955977722
-0.03826962691691462,-0.03172350652323186
0.0050354772259098195,-0.03373769741359579
0.017120622568093383,-0.03508049134050507
-0.035248340581368734,-0.03172350652323186
-0.043305104142824444,-0.02719157701991302
0.02652018005645838,-0.026352330815594724
0.019806210421911954,-0.030045014114595252
-0.019806210421911954,-0.033401998931868467
-0.012420843823910887,-0.03390554665445944
0.02584878309300374,-0.03256275272755016
0.032898451209277486,-0.029709315632867935
0.014435034714274816,-0.02937361715114061
-0.005706874189364461,-0.030380712596322572
-0.04666208896009766,-0.03105210955977722
-0.0016784924086366065,-0.03172350652323186
0.03390554665445944,-0.033066300450141146
-0.02853437094682231,-0.03508049134050507
-0.029877164873731592,-0.035751888303959714
0.019806210421911954,-0.037094682230869
0.03189135576409552,-0.03843747615777828
-0.021820401312275882,-0.03776607919432364
-0.0379339284351873,-0.035416189822232394
0.03390554665445944,-0.03373769741359579
0.03189135576409552,-0.03373769741359579
-0.008392462043183033,-0.03440909437705043
-0.013092240787365528,-0.03558403906309605
0.024841687647821773,-0.036423285267414354
0.025177386129549097,-0.035416189822232394
0.014435034714274816,-0.03508049134050507
0.007049668116273747,-0.03558403906309605
-0.0426337071793698,-0.03675898374914168
0.0003356984817273213,-0.03843747615777828
0.03860532539864195,-0.03910887312123293
-0.017792019531548024,-0.03843747615777828
-0.02719157701991302,-0.037094682230869
0.01846341649500267,-0.03508049134050507
0.037262531471732654,-0.03508049134050507
-0.009735255970092317,-0.036423285267414354
-0.025177386129549097,-0.037094682230869
0.033234149691004806,-0.03776607919432364
0.017120622568093383,-0.03776607919432364
-0.016449225604638743,-0.03743038071259632
-0.0003356984817273213,-0.035919737544823374
0.04129091325246051,-0.035751888303959714
0.04766918440527961,-0.03810177767605096
0.01913481345845731,-0.04011596856641489
0.0016784924086366065,-0.03944457160296025
-0.03826962691691462,-0.03910887312123293
0.009063859006637675,-0.03910887312123293
0.043976501106279084,-0.03508049134050507
-0.01913481345845731,-0.029037918669413288
-0.024505989166094453,-0.024505989166094453
0.03121995880064088,-0.023834592202639806
0.05337605859464408,-0.024338139925230793
0.012420843823910887,-0.024338139925230793
0.013092240787365528,-0.025680933852140077
0.08392462043183031,-0.029709315632867935
0.05874723430228122,-0.03508049134050507
0.0010070954451819635,-0.03776607919432364
-0.004364080262455177,-0.03843747615777828
0.020477607385366595,-0.037094682230869
0.013092240787365528,-0.035416189822232394
-0.01913481345845731,-0.035751888303959714
-0.0379339284351873,-0.0379339284351873
-0.08023193713282978,-0.03978027008468757
-0.03121995880064088,-0.04011596856641489
0.019806210421911954,-0.04078736552986953
-0.03659113450827802,-0.042465857938506144
-0.048676279850461586,-0.0426337071793698
-0.008728160524910353,-0.04213015945677882
0.011749446860456245,-0.04145876249332417
-0.025177386129549097,-0.040451667048142216
-0.0379339284351873,-0.03978027008468757
0.024505989166094453,-0.03944457160296025
0.0157778286411841,-0.04145876249332417
-0.016449225604638743,-0.043808651865415424
-0.007049668116273747,-0.044480048828870064
0.029205767910276948,-0.04682993820096131
0.02752727550164034,-0.048844129091325246
0.007721065079728388,-0.04917982757305257
-0.0003356984817273213,-0.048508430609597926
-0.043305104142824444,-0.0481727321278706
0.0003356984817273213,-0.04649423971923399
0.03457694361791409,-0.042801556420233464
-0.03222705424582283,-0.03978027008468757
-0.043976501106279084,-0.040451667048142216
0.0003356984817273213,-0.041794460975051496
0.022491798275730522,-0.041962310215915156
-0.020813305867093918,-0.041794460975051496
-0.03390554665445944,-0.04061951628900587
0.03390554665445944,-0.03843747615777828
0.021149004348821242,-0.03743038071259632
-0.02584878309300374,-0.03843747615777828
-0.012420843823910887,-0.03843747615777828
0.035248340581368734,-0.03843747615777828
0.037262531471732654,-0.03776607919432364
0.014435034714274816,-0.035751888303959714
0.0023498893720912484,-0.03390554665445944
-0.037262531471732654,-0.03373769741359579
0.0023498893720912484,-0.03508049134050507
0.04129091325246051,-0.036423285267414354
-0.019806210421911954,-0.03843747615777828
-0.02719157701991302,-0.03944457160296025
0.020477607385366595,-0.03927672236209659
0.03558403906309605,-0.03910887312123293
-0.009735255970092317,-0.03776607919432364
-0.021820401312275882,-0.036423285267414354
0.0426337071793698,-0.03675898374914168
0.030212863355458915,-0.03743038071259632
-0.015106431677729458,-0.03810177767605096
-0.015106431677729458,-0.03978027008468757
0.024841687647821773,-0.04078736552986953
0.021820401312275882,-0.03978027008468757
0.0,-0.03910887312123293
-0.004364080262455177,-0.04129091325246051
-0.03860532539864195,-0.044815747310597384
-0.0003356984817273213,-0.04716563668268864
0.03927672236209659,-0.04666208896009766
-0.023163195239185166,-0.04515144579232471
-0.03390554665445944,-0.044480048828870064
0.017792019531548024,-0.04313725490196078
0.03826962691691462,-0.03776607919432364
-0.011413748378728923,-0.03172350652323186
-0.024505989166094453,-0.030380712596322572
0.043976501106279084,-0.033234149691004806
0.02853437094682231,-0.03659113450827802
-0.017792019531548024,-0.040451667048142216
-0.011749446860456245,-0.042465857938506144
0.025177386129549097,-0.04129091325246051
0.029205767910276948,-0.03407339589532311
0.003692683299000534,-0.021149004348821242
-0.01913481345845731,-0.009735255970092317
-0.058075837338826576,-0.006210421911955443
-0.007049668116273747,-0.011078049897001601
0.02752727550164034,-0.020645456626230255
-0.033234149691004806,-0.029037918669413288
-0.04599069199664301,-0.03256275272755016
0.0003356984817273213,-0.03474479285877775
0.016449225604638743,-0.036423285267414354
-0.03054856183718624,-0.03776607919432364
-0.0379339284351873,-0.03944457160296025
0.02652018005645838,-0.041123064011596856
0.017792019531548024,-0.041794460975051496
-0.022491798275730522,-0.041794460975051496
-0.013092240787365528,-0.04213015945677882
0.02719157701991302,-0.04414435034714275
0.03189135576409552,-0.04582284275577936
0.010406652933546959,-0.044647898069733724
-0.008392462043183033,-0.042465857938506144
-0.049347676813916226,-0.040451667048142216
-0.004364080262455177,-0.040451667048142216
0.03994811932555123,-0.04078736552986953
-0.020477607385366595,-0.03910887312123293
-0.029877164873731592,-0.037094682230869
0.023834592202639806,-0.036423285267414354
0.03457694361791409,-0.035248340581368734
-0.02652018005645838,-0.03508049134050507
-0.035248340581368734,-0.035751888303959714
0.041962310215915156,-0.037094682230869
0.03457694361791409,-0.036423285267414354
-0.008392462043183033,-0.03474479285877775
0.0016784924086366065,-0.03373769741359579
0.04531929503318838,-0.033401998931868467
0.043976501106279084,-0.0323949034866865
0.020477607385366595,-0.03105210955977722
0.009063859006637675,-0.032730601968413826
-0.029877164873731592,-0.03608758678568704
0.006378271152819104,-0.03776607919432364
0.033234149691004806,-0.035416189822232394
-0.03121995880064088,-0.0323949034866865
-0.03659113450827802,-0.02937361715114061
0.021149004348821242,-0.02752727550164034
0.044983596551461044,-0.027359426260776684
-0.0010070954451819635,-0.027359426260776684
-0.021820401312275882,-0.027359426260776684
0.03457694361791409,-0.0260166323338674
0.017792019531548024,-0.027695124742504008
-0.022491798275730522,-0.0323949034866865
-0.01913481345845731,-0.03440909437705043
0.019470511940184634,-0.03407339589532311
0.037262531471732654,-0.03373769741359579
0.01846341649500267,-0.03508049134050507
0.004364080262455177,-0.03675898374914168
-0.043305104142824444,-0.03843747615777828
-0.0003356984817273213,-0.03776607919432364
0.0362554360265507,-0.035248340581368734
-0.021820401312275882,-0.03457694361791409
-0.037262531471732654,-0.03440909437705043
0.006378271152819104,-0.03440909437705043
0.025177386129549097,-0.03373769741359579
-0.020477607385366595,-0.03373769741359579
-0.035248340581368734,-0.03440909437705043
0.030212863355458915,-0.035919737544823374
0.0426337071793698,-0.03743038071259632
-0.023163195239185166,-0.03776607919432364
-0.035248340581368734,-0.036423285267414354
0.0050354772259098195,-0.035919737544823374
0.007721065079728388,-0.036423285267414354
-0.0050354772259098195,-0.035751888303959714
-0.014435034714274816,-0.03440909437705043
-0.05673304341191729,-0.03440909437705043
-0.01376363775082017,-0.035751888303959714
0.03256275272755016,-0.03743038071259632
-0.019806210421911954,-0.0387731746395056
-0.02719157701991302,-0.03910887312123293
0.023834592202639806,-0.03944457160296025
0.03961242084382391,-0.040451667048142216
-0.009735255970092317,-0.03944457160296025
-0.020477607385366595,-0.03810177767605096
0.044983596551461044,-0.03743038071259632
0.025177386129549097,-0.03776607919432364
-0.012420843823910887,-0.0387731746395056
-0.0003356984817273213,-0.03978027008468757
0.04666208896009766,-0.03978027008468757
0.04800488288700694,-0.03978027008468757
0.024841687647821773,-0.040451667048142216
0.011749446860456245,-0.041123064011596856
-0.029877164873731592,-0.043472953383688104
0.009063859006637675,-0.04515144579232471
0.03961242084382391,-0.04750133516441596
-0.02584878309300374,-0.04716563668268864
-0.024505989166094453,-0.042801556420233464
0.03256275272755016,-0.035751888303959714
0.050690470740825506,-0.029877164873731592
0.007721065079728388,-0.028366521705958644
-0.011078049897001601,-0.030045014114595252
0.043305104142824444,-0.03105210955977722
0.02584878309300374,-0.03105210955977722
-0.01913481345845731,-0.03172350652323186
-0.005706874189364461,-0.03373769741359579
0.037262531471732654,-0.03440909437705043
0.03659113450827802,-0.03373769741359579
-0.0003356984817273213,-0.03138780804150454
-0.024505989166094453,-0.03105210955977722
-0.06680399786373693,-0.0323949034866865
-0.015106431677729458,-0.03508049134050507
0.025177386129549097,-0.035416189822232394
-0.026184481574731057,-0.03373769741359579
-0.01846341649500267,-0.0323949034866865
0.016449225604638743,-0.03256275272755016
0.02349889372091249,-0.0323949034866865
-0.022491798275730522,-0.0323949034866865
-0.022491798275730522,-0.03440909437705043
0.04632639047837033,-0.03675898374914168
0.032898451209277486,-0.03659113450827802
-0.012420843823910887,-0.03508049134050507
-0.003692683299000534,-0.03407339589532311
0.0379339284351873,-0.03474479285877775
0.043976501106279084,-0.03373769741359579
0.017120622568093383,-0.029877164873731592
-0.0030212863355458916,-0.025680933852140077
-0.050690470740825506,-0.021652552071412222
-0.005706874189364461,-0.021652552071412222
0.029877164873731592,-0.021988250553139542
-0.03054856183718624,-0.022995345998321506
-0.035248340581368734,-0.023834592202639806
0.021820401312275882,-0.026352330815594724
0.0426337071793698,-0.02853437094682231
-0.0023498893720912484,-0.028030823224231328
-0.024841687647821773,-0.028366521705958644
0.035248340581368734,-0.029037918669413288
0.017120622568093383,-0.030045014114595252
-0.029877164873731592,-0.029877164873731592
-0.02584878309300374,-0.030380712596322572
0.01846341649500267,-0.030045014114595252
0.02853437094682231,-0.029709315632867935
0.013092240787365528,-0.029709315632867935
0.0010070954451819635,-0.029709315632867935
-0.04599069199664301,-0.02937361715114061
-0.0010070954451819635,-0.03105210955977722
0.03994811932555123,-0.033234149691004806
-0.023834592202639806,-0.03407339589532311
-0.04129091325246051,-0.03373769741359579
0.006378271152819104,-0.032898451209277486
0.014435034714274816,-0.0323949034866865
-0.03054856183718624,-0.03172350652323186
-0.035919737544823374,-0.030380712596322572
0.03121995880064088,-0.029709315632867935
0.020813305867093918,-0.030380712596322572
-0.015106431677729458,-0.032730601968413826
-0.0016784924086366065,-0.035751888303959714
0.030212863355458915,-0.03810177767605096
0.03189135576409552,-0.0387731746395056
0.0157778286411841,-0.03978027008468757
0.0023498893720912484,-0.041794460975051496
-0.03457694361791409,-0.04213015945677882
0.010406652933546959,-0.041794460975051496
0.05270466163118945,-0.03978027008468757
-0.016449225604638743,-0.03843747615777828
-0.03256275272755016,-0.03810177767605096
0.010070954451819639,-0.0379339284351873
0.029205767910276948,-0.03776607919432364
-0.006378271152819104,-0.037094682230869
-0.011078049897001601,-0.03743038071259632
0.05337605859464408,-0.03910887312123293
0.037262531471732654,-0.04011596856641489
-0.012420843823910887,-0.03944457160296025
-0.012420843823910887,-0.0387731746395056
0.035919737544823374,-0.03860532539864195
0.03860532539864195,-0.03910887312123293
0.015442130159456776,-0.03910887312123293
-0.0003356984817273213,-0.03910887312123293
-0.043305104142824444,-0.04078736552986953
0.0023498893720912484,-0.04313725490196078
0.04061951628900587,-0.04414435034714275
-0.01913481345845731,-0.044480048828870064
-0.030212863355458915,-0.04313725490196078
0.017792019531548024,-0.04078736552986953
0.03558403906309605,-0.04061951628900587
-0.011749446860456245,-0.041794460975051496
-0.020477607385366595,-0.04061951628900587
0.044312199588006404,-0.03944457160296025
0.029205767910276948,-0.03978027008468757
-0.020477607385366595,-0.04129091325246051
-0.010406652933546959,-0.043472953383688104
0.03054856183718624,-0.044480048828870064
0.023834592202639806,-0.042801556420233464
-0.0003356984817273213,-0.03944457160296025
-0.011078049897001601,-0.03910887312123293
-0.04666208896009766,-0.040451667048142216
-0.0010070954451819635,-0.04078736552986953
0.02584878309300374,-0.04011596856641489
-0.043305104142824444,-0.03978027008468757
-0.04800488288700694,-0.04129091325246051
0.008728160524910353,-0.043976501106279084
0.029205767910276948,-0.04582284275577936
-0.019806210421911954,-0.04548714427405204
-0.03256275272755016,-0.041794460975051496
0.0157778286411841,-0.03508049134050507
-0.0023498893720912484,-0.028702220187685965
-0.044647898069733724,-0.025177386129549097
-0.020477607385366595,-0.024673838406958113
0.04129091325246051,-0.025680933852140077
0.04632639047837033,-0.027023727779049357
0.015106431677729458,-0.028030823224231328
-0.008392462043183033,-0.027862973983367664
-0.050019073777370866,-0.029037918669413288
-0.009735255970092317,-0.03172350652323186
0.025177386129549097,-0.03440909437705043
-0.03927672236209659,-0.033401998931868467
-0.04800488288700694,-0.030716411078049892
0.0006713969634546426,-0.02937361715114061
0.023163195239185166,-0.028366521705958644
-0.021820401312275882,-0.028366521705958644
-0.03961242084382391,-0.027862973983367664
0.016449225604638743,-0.028702220187685965
-0.0003356984817273213,-0.029709315632867935
-0.03927672236209659,-0.029709315632867935
-0.03457694361791409,-0.028030823224231328
0.022156099794003202,-0.026352330815594724
0.0426337071793698,-0.02584878309300374
0.04129091325246051,-0.028702220187685965
0.05471885252155337,-0.0323949034866865
0.03994811932555123,-0.035751888303959714
0.07821774624246586,-0.03743038071259632
0.08661020828564889,-0.03860532539864195
-0.008392462043183033,-0.03810177767605096
-0.044647898069733724,-0.037094682230869
-0.017120622568093383,-0.036423285267414354
-0.0050354772259098195,-0.03440909437705043
-0.050019073777370866,-0.03105210955977722
