EMG Sensor 0
0.0
0.0
0.0
0.0
0.0
0.0
0.0
0.0
0.0
0.0
0.0
0.0
0.0
0.0
0.0
0.0
0.0
0.0
0.0
0.0
0.0
0.0
0.0
0.0
0.0
0.0
0.0
0.0
0.0
0.0
0.0
0.0
0.0
0.0
0.0
0.0
0.0
0.0
0.0
0.0
0.0
0.0
0.0
0.0
0.0
0.0
0.0
0.0
0.0
0.0
0.0
0.0
0.0
0.0
0.0
0.0
0.0
0.0
0.0
0.0
0.0
0.0
0.0
0.0
0.0
0.0
0.0
0.0
0.0
0.0
0.0
0.0
0.0
0.0
0.0
0.0
0.0
0.0
0.0
0.0
0.0
0.0
0.0
0.0
0.0
0.0
0.0
0.0
0.0
0.0
0.0
0.0
0.0
0.0
0.0
0.0
0.0
0.0
0.0
0.0
0.0
0.0
0.0
0.0
0.0
0.0
0.0
0.0
0.0
0.0
0.0
0.0
0.0
0.0
0.0
0.0
0.0
0.0
0.0
0.0
0.0
0.0
0.0
0.0
0.0
0.0
0.0
0.0
0.0
0.0
0.0
0.0
0.0
0.0
0.0
0.0
0.0
0.0
0.0
0.0
0.0
0.0
0.0
0.0
0.0
0.0
0.0
0.0
0.0
0.0
0.0
0.0
0.0
0.0
0.0
0.0
0.0
0.0
0.0
0.0
0.0
0.0
0.0
0.0
0.0
0.0
0.0
0.0
0.0
0.0
0.0
0.0
0.0
0.0
0.0
0.0
0.0
0.0
0.0
0.0
0.0
0.0
0.0
0.0
0.0
0.0
0.0
0.0
0.0
0.0
0.0
0.0
0.0
0.0
0.0
0.0
0.0
0.0
0.0
0.0
0.0
0.0
0.0
0.0
0.0
0.0
0.0
0.0
0.0
0.0
0.0
0.0
0.0
0.0
0.0
0.0
0.0
0.0
0.0
0.0
0.0
0.0
0.0
0.0
0.0
0.0
0.0
0.0
0.0
0.0
0.0
0.0
0.0
0.0
0.0
0.0
0.0
0.0
0.0
0.0
0.0
0.0
0.0
0.0
0.0
0.0
0.0
0.0
0.0
0.0
0.0
0.0
0.0
0.0
0.0
0.0
0.0
0.0
0.0
0.0
0.0
0.0
0.0
0.0
0.0
0.0
0.0
0.0
0.0
0.0
0.0
0.0
0.0
0.0
0.0
0.0
0.0
0.0
0.0
0.0
0.0
0.0
0.0
0.0
0.0
0.0
0.0
0.0
0.0
0.0
0.0
0.0
0.0
0.0
0.0
0.0
0.0
0.0
0.0
0.0
0.0
0.0
0.0
0.0
0.0
0.0
0.0
0.0
0.0
0.0
0.0
0.0
0.0
0.0
0.0
0.0
0.0
0.0
0.0
0.0
0.0
0.0
0.0
0.0
0.0
0.0
0.0
0.0
0.0
0.0
0.0
0.0
0.0
0.0
0.0
0.0
0.0
0.0
0.0
0.0
0.0
0.0
0.0
0.0
0.0
0.0
0.0
0.0
0.0
0.0
0.0
0.0
0.0
0.0
0.0
0.0
0.0
0.0
0.0
0.0
0.0
0.0
0.0
0.0
0.0
0.0
0.0
0.0
0.0
0.0
0.0
0.0
0.0
0.0
0.0
0.0
0.0
0.0
0.0
0.0
0.0
0.0
0.0
0.0
0.0
0.0
0.0
0.0
0.0
0.0
0.0
0.0
0.0
0.0
0.0
0.0
0.0
0.0
0.0
0.0
0.0
0.0
0.0
0.0
0.0
0.0
0.0
0.0
-0.004699778744182497
0.006378271152819104
0.008728160524910353
0.008392462043183033
0.010406652933546959
0.010406652933546959
0.010406652933546959
0.010406652933546959
0.009063859006637675
0.009063859006637675
0.007721065079728388
0.006378271152819104
0.0050354772259098195
0.003356984817273213
0.0030212863355458916
0.0023498893720912484
0.0023498893720912484
0.0030212863355458916
0.003692683299000534
0.003692683299000534
0.004364080262455177
0.0050354772259098195
0.006378271152819104
0.007721065079728388
0.009735255970092317
0.010406652933546959
0.010406652933546959
0.010406652933546959
0.010070954451819639
0.009063859006637675
0.009063859006637675
0.007721065079728388
0.006378271152819104
0.0050354772259098195
0.003692683299000534
0.0023498893720912484
0.0023498893720912484
0.0023498893720912484
0.0023498893720912484
0.003692683299000534
0.003692683299000534
0.004364080262455177
0.0050354772259098195
0.007385366598001068
0.009063859006637675
0.010070954451819639
0.010406652933546959
0.011078049897001601
0.011078049897001601
0.010406652933546959
0.009735255970092317
0.008728160524910353
0.008728160524910353
0.006378271152819104
0.004364080262455177
0.0030212863355458916
0.0023498893720912484
0.0023498893720912484
0.0023498893720912484
0.0023498893720912484
0.003356984817273213
0.003692683299000534
0.0030212863355458916
0.0050354772259098195
0.006378271152819104
0.007721065079728388
0.009735255970092317
0.010406652933546959
0.010406652933546959
0.010406652933546959
0.009735255970092317
0.009063859006637675
0.009063859006637675
0.007721065079728388
0.006378271152819104
0.003692683299000534
0.0023498893720912484
0.002014190890363927
0.0023498893720912484
0.0016784924086366065
0.0023498893720912484
0.003692683299000534
0.003692683299000534
0.0050354772259098195
0.0050354772259098195
0.006378271152819104
0.008728160524910353
0.009063859006637675
0.010406652933546959
0.010406652933546959
0.010406652933546959
0.010406652933546959
0.009735255970092317
0.009063859006637675
0.009063859006637675
0.007721065079728388
0.0050354772259098195
0.003692683299000534
0.0023498893720912484
0.0023498893720912484
0.0016784924086366065
0.0023498893720912484
0.0030212863355458916
0.003692683299000534
0.0050354772259098195
0.005706874189364461
0.007049668116273747
0.007721065079728388
0.010406652933546959
0.010406652933546959
0.010406652933546959
0.010406652933546959
0.010406652933546959
0.009735255970092317
0.009063859006637675
0.007721065079728388
0.006378271152819104
0.004364080262455177
0.0023498893720912484
0.0010070954451819635
0.0016784924086366065
0.0016784924086366065
0.0023498893720912484
0.003356984817273213
0.0030212863355458916
0.004364080262455177
0.0050354772259098195
0.006378271152819104
0.009063859006637675
0.010406652933546959
0.011413748378728923
0.010406652933546959
0.010406652933546959
0.010406652933546959
0.009735255970092317
0.009063859006637675
0.008392462043183033
0.006378271152819104
0.0050354772259098195
0.0023498893720912484
0.0016784924086366065
0.0023498893720912484
0.0023498893720912484
0.0030212863355458916
0.0023498893720912484
0.003692683299000534
0.0050354772259098195
0.006378271152819104
0.007721065079728388
0.009063859006637675
0.010406652933546959
0.011749446860456245
0.012420843823910887
0.011749446860456245
0.011078049897001601
0.010406652933546959
0.010070954451819639
0.009063859006637675
0.007049668116273747
0.0050354772259098195
0.0030212863355458916
0.002014190890363927
0.0010070954451819635
0.0010070954451819635
0.0016784924086366065
0.0023498893720912484
0.003356984817273213
0.004364080262455177
0.0050354772259098195
0.006378271152819104
0.007721065079728388
0.010406652933546959
0.011749446860456245
0.010406652933546959
0.010406652933546959
0.009735255970092317
0.009735255970092317
0.008392462043183033
0.007721065079728388
0.006378271152819104
0.003692683299000534
0.0016784924086366065
0.0010070954451819635
0.0010070954451819635
0.0010070954451819635
0.0016784924086366065
0.0023498893720912484
0.0023498893720912484
0.004364080262455177
0.0050354772259098195
0.006378271152819104
0.009063859006637675
0.011749446860456245
0.012420843823910887
0.013092240787365528
0.011749446860456245
0.011749446860456245
0.011413748378728923
0.010406652933546959
0.009735255970092317
0.007049668116273747
0.0050354772259098195
0.0023498893720912484
0.0016784924086366065
0.0003356984817273213
0.0010070954451819635
0.002014190890363927
0.0016784924086366065
0.0023498893720912484
0.003692683299000534
0.0050354772259098195
0.007049668116273747
0.008392462043183033
0.011749446860456245
0.013092240787365528
0.011749446860456245
0.011749446860456245
0.011749446860456245
0.011749446860456245
0.010406652933546959
0.009735255970092317
0.006713969634546426
0.004364080262455177
0.0023498893720912484
0.0010070954451819635
0.0010070954451819635
-0.0003356984817273213
0.0016784924086366065
0.0016784924086366065
0.0023498893720912484
0.003692683299000534
0.0050354772259098195
0.007385366598001068
0.009735255970092317
0.012420843823910887
0.013092240787365528
0.013092240787365528
0.012756542305638208
0.011413748378728923
0.011749446860456245
0.011078049897001601
0.010406652933546959
0.007049668116273747
0.004364080262455177
0.0016784924086366065
-0.0003356984817273213
-0.0003356984817273213
0.0003356984817273213
0.0010070954451819635
0.0016784924086366065
0.0023498893720912484
0.003692683299000534
0.0050354772259098195
0.007049668116273747
0.009063859006637675
0.011749446860456245
0.013092240787365528
0.013092240787365528
0.012420843823910887
0.011749446860456245
0.011749446860456245
0.012420843823910887
0.010406652933546959
0.007049668116273747
0.003692683299000534
0.0016784924086366065
-0.0003356984817273213
-0.0003356984817273213
0.0003356984817273213
0.0010070954451819635
0.0016784924086366065
0.0023498893720912484
0.003692683299000534
0.0050354772259098195
0.007721065079728388
0.010406652933546959
0.012420843823910887
0.01376363775082017
0.013092240787365528
0.012756542305638208
0.011749446860456245
0.011413748378728923
0.012420843823910887
0.009735255970092317
0.006378271152819104
0.0030212863355458916
0.0003356984817273213
-0.0023498893720912484
-0.0030212863355458916
-0.0016784924086366065
-0.0010070954451819635
-0.0003356984817273213
0.0003356984817273213
0.0023498893720912484
0.004699778744182497
0.007721065079728388
0.010406652933546959
0.013092240787365528
0.013092240787365528
0.013092240787365528
0.012420843823910887
0.011078049897001601
0.011749446860456245
0.013092240787365528
0.011749446860456245
0.007721065079728388
0.003692683299000534
0.0010070954451819635
-0.0010070954451819635
-0.0023498893720912484
-0.0016784924086366065
-0.0003356984817273213
0.0010070954451819635
0.0023498893720912484
0.0030212863355458916
0.005706874189364461
0.008392462043183033
0.011749446860456245
0.013092240787365528
0.013092240787365528
0.013092240787365528
0.013092240787365528
0.012420843823910887
0.012085145342183566
0.01376363775082017
0.013092240787365528
0.007721065079728388
0.003692683299000534
0.0003356984817273213
-0.0016784924086366065
-0.0030212863355458916
-0.0023498893720912484
-0.0010070954451819635
-0.0003356984817273213
-0.0003356984817273213
0.0016784924086366065
0.0050354772259098195
0.007721065079728388
0.010406652933546959
0.013092240787365528
0.013092240787365528
0.014435034714274816
0.013092240787365528
0.011749446860456245
0.013092240787365528
0.014435034714274816
0.014435034714274816
0.010406652933546959
0.0050354772259098195
0.0006713969634546426
-0.0016784924086366065
-0.0030212863355458916
-0.0030212863355458916
-0.0010070954451819635
-0.0006713969634546426
-0.0003356984817273213
0.0016784924086366065
0.004699778744182497
0.007721065079728388
0.010406652933546959
0.012420843823910887
0.013092240787365528
0.013092240787365528
0.012420843823910887
0.011749446860456245
0.012420843823910887
0.014435034714274816
0.014435034714274816
0.009735255970092317
0.003692683299000534
-0.0003356984817273213
-0.002014190890363927
-0.004364080262455177
-0.003692683299000534
-0.0016784924086366065
-0.0010070954451819635
-0.0003356984817273213
0.0010070954451819635
0.004364080262455177
0.007721065079728388
0.011749446860456245
0.012420843823910887
0.013092240787365528
0.01376363775082017
0.013092240787365528
0.011749446860456245
0.013092240787365528
0.014435034714274816
0.015106431677729458
0.010406652933546959
0.0050354772259098195
-0.0003356984817273213
-0.0023498893720912484
-0.003692683299000534
-0.0030212863355458916
-0.0016784924086366065
-0.0010070954451819635
-0.0003356984817273213
0.0010070954451819635
0.0050354772259098195
0.008392462043183033
0.011749446860456245
0.013092240787365528
0.013092240787365528
0.013092240787365528
0.013092240787365528
0.011749446860456245
0.012420843823910887
0.014099336232547494
0.015442130159456776
0.011749446860456245
0.0050354772259098195
0.0003356984817273213
-0.0023498893720912484
-0.003692683299000534
-0.0030212863355458916
-0.002014190890363927
-0.0010070954451819635
-0.0003356984817273213
0.002014190890363927
0.004699778744182497
0.007721065079728388
0.011078049897001601
0.012420843823910887
0.013092240787365528
0.013092240787365528
0.013092240787365528
0.013092240787365528
0.013092240787365528
0.015106431677729458
0.015106431677729458
0.011749446860456245
0.0050354772259098195
-0.0003356984817273213
-0.002014190890363927
-0.0030212863355458916
-0.0030212863355458916
-0.0030212863355458916
-0.0016784924086366065
-0.0003356984817273213
0.0016784924086366065
0.0050354772259098195
0.007721065079728388
0.011749446860456245
0.013092240787365528
0.01376363775082017
0.01376363775082017
0.013092240787365528
0.013092240787365528
0.01376363775082017
0.0157778286411841
0.0157778286411841
0.011749446860456245
0.0050354772259098195
-0.0003356984817273213
-0.0023498893720912484
-0.004364080262455177
-0.004364080262455177
-0.0030212863355458916
-0.0016784924086366065
-0.0003356984817273213
0.0010070954451819635
0.004364080262455177
0.007721065079728388
0.010406652933546959
0.012420843823910887
0.013092240787365528
0.013092240787365528
0.013092240787365528
0.012420843823910887
0.013092240787365528
0.015442130159456776
0.016449225604638743
0.013092240787365528
0.0050354772259098195
-0.0006713969634546426
-0.003356984817273213
-0.004028381780727854
-0.003692683299000534
-0.0030212863355458916
-0.0016784924086366065
-0.0003356984817273213
0.0010070954451819635
0.0050354772259098195
0.008392462043183033
0.010406652933546959
0.012420843823910887
0.013092240787365528
0.012756542305638208
0.012420843823910887
0.013092240787365528
0.013092240787365528
0.0157778286411841
0.016449225604638743
0.012756542305638208
0.005706874189364461
-0.0003356984817273213
-0.003692683299000534
-0.004364080262455177
-0.004364080262455177
-0.0030212863355458916
-0.0016784924086366065
-0.0016784924086366065
0.0003356984817273213
0.0050354772259098195
0.009063859006637675
0.009735255970092317
0.011749446860456245
0.013092240787365528
0.013092240787365528
0.013092240787365528
0.013092240787365528
0.014435034714274816
0.0157778286411841
0.016784924086366067
0.01376363775082017
0.005706874189364461
-0.0010070954451819635
-0.0030212863355458916
-0.004364080262455177
-0.004364080262455177
-0.003692683299000534
-0.0016784924086366065
-0.0016784924086366065
0.0010070954451819635
0.0050354772259098195
0.008728160524910353
0.010406652933546959
0.012420843823910887
0.01376363775082017
0.014099336232547494
0.014099336232547494
0.013092240787365528
0.014435034714274816
0.016784924086366067
0.017120622568093383
0.014435034714274816
0.006378271152819104
-0.0003356984817273213
-0.003356984817273213
-0.0050354772259098195
-0.004364080262455177
-0.0030212863355458916
-0.002014190890363927
-0.0016784924086366065
0.0010070954451819635
0.0050354772259098195
0.008392462043183033
0.009735255970092317
0.011749446860456245
0.013092240787365528
0.013092240787365528
0.013092240787365528
0.013092240787365528
0.014435034714274816
0.017120622568093383
0.017792019531548024
0.015106431677729458
0.007049668116273747
-0.0003356984817273213
-0.004364080262455177
-0.005706874189364461
-0.0050354772259098195
-0.004699778744182497
-0.0030212863355458916
-0.0016784924086366065
0.0010070954451819635
0.0050354772259098195
0.007721065079728388
0.009063859006637675
0.013092240787365528
0.014099336232547494
0.014435034714274816
0.013092240787365528
0.01376363775082017
0.0157778286411841
0.01846341649500267
0.01846341649500267
0.0157778286411841
0.007049668116273747
-0.0006713969634546426
-0.005706874189364461
-0.006378271152819104
-0.005706874189364461
-0.004364080262455177
-0.004364080262455177
-0.0030212863355458916
0.0003356984817273213
0.0050354772259098195
0.007721065079728388
0.008728160524910353
0.013092240787365528
0.014435034714274816
0.014435034714274816
0.014435034714274816
0.014435034714274816
0.016449225604638743
0.019470511940184634
0.019806210421911954
0.016784924086366067
0.008392462043183033
-0.0010070954451819635
-0.0050354772259098195
-0.006378271152819104
-0.006378271152819104
-0.005706874189364461
-0.0050354772259098195
-0.003692683299000534
-0.0003356984817273213
0.0050354772259098195
0.006378271152819104
0.007721065079728388
0.011749446860456245
0.014099336232547494
0.014435034714274816
0.014435034714274816
0.013092240787365528
0.016784924086366067
0.019470511940184634
0.020477607385366595
0.017120622568093383
0.008728160524910353
-0.0016784924086366065
-0.006378271152819104
-0.008392462043183033
-0.008392462043183033
-0.007049668116273747
-0.005706874189364461
-0.0050354772259098195
-0.0010070954451819635
0.003692683299000534
0.005706874189364461
0.006378271152819104
0.012420843823910887
0.014435034714274816
0.0157778286411841
0.015106431677729458
0.014435034714274816
0.017792019531548024
0.021149004348821242
0.022491798275730522
0.020477607385366595
0.010406652933546959
-0.0016784924086366065
-0.007049668116273747
-0.009063859006637675
-0.009735255970092317
-0.008392462043183033
-0.007049668116273747
-0.006378271152819104
-0.002014190890363927
0.003692683299000534
0.004364080262455177
0.0050354772259098195
0.011078049897001601
0.014435034714274816
0.0157778286411841
0.0157778286411841
0.0157778286411841
0.01846341649500267
0.023834592202639806
0.023834592202639806
0.021149004348821242
0.014435034714274816
0.003356984817273213
-0.003356984817273213
-0.006042572671091783
-0.005706874189364461
-0.005706874189364461
-0.004364080262455177
-0.004364080262455177
-0.003692683299000534
-0.004699778744182497
-0.006378271152819104
-0.0016784924086366065
0.0050354772259098195
0.010070954451819639
0.013092240787365528
0.013092240787365528
0.014435034714274816
0.01846341649500267
0.025177386129549097
0.026855878538185704
0.023834592202639806
0.01846341649500267
0.011078049897001601
0.005706874189364461
0.0016784924086366065
0.0010070954451819635
0.0003356984817273213
-0.0016784924086366065
-0.006042572671091783
-0.009735255970092317
-0.010406652933546959
-0.011078049897001601
-0.006378271152819104
0.0010070954451819635
0.006378271152819104
0.009735255970092317
0.011749446860456245
0.013092240787365528
0.017792019531548024
0.025177386129549097
0.02652018005645838
0.022491798275730522
0.017792019531548024
0.011078049897001601
0.006378271152819104
0.0030212863355458916
0.0023498893720912484
0.0023498893720912484
-0.0016784924086366065
-0.006042572671091783
-0.009735255970092317
-0.011078049897001601
-0.011749446860456245
-0.005706874189364461
0.0023498893720912484
0.007721065079728388
0.010406652933546959
0.011749446860456245
0.013092240787365528
0.01913481345845731
0.02584878309300374
0.02652018005645838
0.023834592202639806
0.017792019531548024
0.010406652933546959
0.0050354772259098195
0.002014190890363927
0.0003356984817273213
-0.0006713969634546426
-0.0016784924086366065
-0.006378271152819104
-0.009735255970092317
-0.011078049897001601
-0.011078049897001601
-0.005706874189364461
0.0023498893720912484
0.007721065079728388
0.011749446860456245
0.012420843823910887
0.013092240787365528
0.01913481345845731
0.025513084611276417
0.02652018005645838
0.023163195239185166
0.01846341649500267
0.010070954451819639
0.0050354772259098195
0.0023498893720912484
0.0010070954451819635
0.0010070954451819635
-0.0016784924086366065
-0.005706874189364461
-0.009063859006637675
-0.009735255970092317
-0.010070954451819639
-0.004364080262455177
0.003692683299000534
0.009063859006637675
0.011749446860456245
0.013092240787365528
0.013092240787365528
0.019470511940184634
0.025177386129549097
0.02652018005645838
0.023834592202639806
0.01846341649500267
0.010070954451819639
0.006378271152819104
0.003356984817273213
0.0010070954451819635
0.0010070954451819635
-0.0003356984817273213
-0.004364080262455177
-0.007049668116273747
-0.007049668116273747
-0.005706874189364461
-0.005706874189364461
-0.0003356984817273213
0.003692683299000534
0.007049668116273747
0.009063859006637675
0.009735255970092317
0.013092240787365528
0.01812771801327535
0.019806210421911954
0.016784924086366067
0.013092240787365528
0.007385366598001068
0.004364080262455177
0.0016784924086366065
0.0003356984817273213
-0.0003356984817273213
-0.0003356984817273213
-0.003356984817273213
-0.005706874189364461
-0.006378271152819104
-0.007049668116273747
-0.0016784924086366065
0.004364080262455177
0.007721065079728388
0.009735255970092317
0.010406652933546959
0.011749446860456245
0.017120622568093383
0.021820401312275882
0.02349889372091249
0.021149004348821242
0.016449225604638743
0.011749446860456245
0.007721065079728388
0.006378271152819104
0.004699778744182497
0.0050354772259098195
0.0010070954451819635
-0.0016784924086366065
-0.0050354772259098195
-0.005706874189364461
-0.005706874189364461
-0.002014190890363927
0.004699778744182497
0.007049668116273747
0.009063859006637675
0.010406652933546959
0.011749446860456245
0.0157778286411841
0.020477607385366595
0.020477607385366595
0.017792019531548024
0.013092240787365528
0.009063859006637675
0.006378271152819104
0.003692683299000534
0.0023498893720912484
0.0010070954451819635
-0.0003356984817273213
-0.0030212863355458916
-0.005706874189364461
-0.006378271152819104
-0.005706874189364461
-0.0010070954451819635
0.004699778744182497
0.007721065079728388
0.009063859006637675
0.010070954451819639
0.011078049897001601
0.015106431677729458
0.01913481345845731
0.020477607385366595
0.01812771801327535
0.014435034714274816
0.007721065079728388
0.0050354772259098195
0.0023498893720912484
0.0023498893720912484
0.0010070954451819635
-0.0003356984817273213
-0.0030212863355458916
-0.004699778744182497
-0.006042572671091783
-0.005706874189364461
-0.0003356984817273213
0.0050354772259098195
0.007721065079728388
0.009735255970092317
0.010406652933546959
0.011749446860456245
0.016449225604638743
0.020477607385366595
0.020813305867093918
0.01846341649500267
0.01376363775082017
0.009063859006637675
0.006378271152819104
0.004364080262455177
0.003356984817273213
0.0023498893720912484
0.0003356984817273213
-0.0030212863355458916
-0.004364080262455177
-0.005706874189364461
-0.005706874189364461
-0.0010070954451819635
0.004364080262455177
0.007049668116273747
0.009063859006637675
0.010406652933546959
0.011413748378728923
0.016449225604638743
0.019806210421911954
0.020477607385366595
0.01846341649500267
0.01376363775082017
0.008728160524910353
0.0050354772259098195
0.003692683299000534
0.0023498893720912484
0.002014190890363927
-0.0003356984817273213
-0.0030212863355458916
-0.0050354772259098195
-0.005706874189364461
-0.005706874189364461
-0.0010070954451819635
0.0050354772259098195
0.007721065079728388
0.009735255970092317
0.010406652933546959
0.011413748378728923
0.0157778286411841
0.019470511940184634
0.019806210421911954
0.01846341649500267
0.014435034714274816
0.008728160524910353
0.0050354772259098195
0.0023498893720912484
0.0016784924086366065
0.0016784924086366065
0.0
-0.0030212863355458916
-0.004364080262455177
-0.005706874189364461
-0.005706874189364461
-0.0010070954451819635
0.004364080262455177
0.007721065079728388
0.009063859006637675
0.010406652933546959
0.012420843823910887
0.0157778286411841
0.019806210421911954
0.021149004348821242
0.017792019531548024
0.013092240787365528
0.007721065079728388
0.0050354772259098195
0.0023498893720912484
0.0016784924086366065
0.0010070954451819635
-0.0010070954451819635
-0.003692683299000534
-0.006042572671091783
-0.006378271152819104
-0.006042572671091783
-0.0016784924086366065
0.0050354772259098195
0.008392462043183033
0.010406652933546959
0.011413748378728923
0.013092240787365528
0.017120622568093383
0.021149004348821242
0.021820401312275882
0.01913481345845731
0.014435034714274816
0.009063859006637675
0.0050354772259098195
0.003692683299000534
0.0023498893720912484
0.0016784924086366065
-0.0010070954451819635
-0.004364080262455177
-0.006378271152819104
-0.006713969634546426
-0.007385366598001068
-0.0016784924086366065
0.0050354772259098195
0.007721065079728388
0.010406652933546959
0.011078049897001601
0.012756542305638208
0.017792019531548024
0.022491798275730522
0.022491798275730522
0.01846341649500267
0.014435034714274816
0.009063859006637675
0.0050354772259098195
0.003692683299000534
0.0023498893720912484
0.0010070954451819635
-0.0010070954451819635
-0.003692683299000534
-0.006378271152819104
-0.006378271152819104
-0.005706874189364461
-0.0016784924086366065
0.0050354772259098195
0.008392462043183033
0.010406652933546959
0.011078049897001601
0.011749446860456245
0.017120622568093383
0.022491798275730522
0.021149004348821242
0.017792019531548024
0.013092240787365528
0.007721065079728388
0.004364080262455177
0.002014190890363927
0.0010070954451819635
0.0010070954451819635
-0.0016784924086366065
-0.0050354772259098195
-0.007049668116273747
-0.007049668116273747
-0.006378271152819104
-0.0006713969634546426
0.0050354772259098195
0.008728160524910353
0.010406652933546959
0.010406652933546959
0.013092240787365528
0.017792019531548024
0.021149004348821242
0.021820401312275882
0.01846341649500267
0.013092240787365528
0.007721065079728388
0.004364080262455177
0.002014190890363927
0.0010070954451819635
0.002014190890363927
-0.0010070954451819635
-0.0050354772259098195
-0.007049668116273747
-0.007049668116273747
-0.006713969634546426
-0.0016784924086366065
0.004364080262455177
0.007721065079728388
0.010406652933546959
0.011078049897001601
0.012420843823910887
0.017120622568093383
0.021820401312275882
0.021820401312275882
0.01846341649500267
0.013092240787365528
0.008392462043183033
0.0050354772259098195
0.0016784924086366065
0.0010070954451819635
0.0010070954451819635
-0.0010070954451819635
-0.004364080262455177
-0.006713969634546426
-0.006713969634546426
-0.007049668116273747
-0.0003356984817273213
0.0050354772259098195
0.009063859006637675
0.011749446860456245
0.011749446860456245
0.013092240787365528
0.01846341649500267
0.022491798275730522
0.021149004348821242
0.01846341649500267
0.01376363775082017
0.007721065079728388
0.0050354772259098195
0.0023498893720912484
0.0016784924086366065
0.0010070954451819635
-0.0016784924086366065
-0.004364080262455177
-0.006378271152819104
-0.007385366598001068
-0.005706874189364461
-0.0003356984817273213
0.0050354772259098195
0.009063859006637675
0.010406652933546959
0.011749446860456245
0.013092240787365528
0.01846341649500267
0.021820401312275882
0.022491798275730522
0.01846341649500267
0.013092240787365528
0.007721065079728388
0.004364080262455177
0.0023498893720912484
0.0010070954451819635
0.0010070954451819635
-0.0016784924086366065
-0.0050354772259098195
-0.007049668116273747
-0.007721065079728388
-0.007049668116273747
-0.0016784924086366065
0.0050354772259098195
0.009063859006637675
0.010406652933546959
0.011078049897001601
0.012756542305638208
0.017792019531548024
0.021820401312275882
0.021149004348821242
0.017792019531548024
0.013092240787365528
0.007721065079728388
0.003692683299000534
0.0016784924086366065
0.0010070954451819635
0.0003356984817273213
-0.0016784924086366065
-0.004364080262455177
-0.006378271152819104
-0.007721065079728388
-0.006378271152819104
-0.0003356984817273213
0.0050354772259098195
0.009063859006637675
0.010406652933546959
0.011749446860456245
0.01376363775082017
0.01846341649500267
0.022156099794003202
0.022491798275730522
0.01846341649500267
0.012756542305638208
0.007385366598001068
0.004364080262455177
0.002014190890363927
0.0010070954451819635
0.0006713969634546426
-0.0016784924086366065
-0.005706874189364461
-0.007049668116273747
-0.008392462043183033
-0.005706874189364461
-0.0003356984817273213
0.005706874189364461
0.009063859006637675
0.011078049897001601
0.011749446860456245
0.014099336232547494
0.01913481345845731
0.023834592202639806
0.023834592202639806
0.019806210421911954
0.01376363775082017
0.007721065079728388
0.0050354772259098195
0.0030212863355458916
0.0010070954451819635
-0.0003356984817273213
-0.0010070954451819635
-0.0050354772259098195
-0.007721065079728388
-0.008392462043183033
-0.007049668116273747
-0.0003356984817273213
0.005706874189364461
0.009063859006637675
0.010406652933546959
0.011749446860456245
0.014435034714274816
0.019806210421911954
0.02349889372091249
0.02349889372091249
0.019470511940184634
0.013092240787365528
0.007049668116273747
0.0023498893720912484
-0.0003356984817273213
-0.0016784924086366065
-0.0030212863355458916
-0.0010070954451819635
-0.0030212863355458916
-0.006378271152819104
-0.008392462043183033
-0.006378271152819104
0.0010070954451819635
0.007049668116273747
0.010406652933546959
0.011078049897001601
0.013092240787365528
0.0157778286411841
0.020477607385366595
0.024841687647821773
0.023834592202639806
0.019806210421911954
0.013092240787365528
0.006378271152819104
-0.0003356984817273213
-0.0030212863355458916
-0.004364080262455177
-0.003356984817273213
-0.0016784924086366065
-0.0030212863355458916
-0.005706874189364461
-0.006378271152819104
-0.0050354772259098195
0.0016784924086366065
0.007049668116273747
0.010406652933546959
0.011749446860456245
0.012756542305638208
0.014435034714274816
0.021149004348821242
0.02584878309300374
0.024841687647821773
0.020477607385366595
0.013092240787365528
0.006378271152819104
-0.0003356984817273213
-0.0030212863355458916
-0.003356984817273213
-0.0030212863355458916
-0.0010070954451819635
-0.004364080262455177
-0.008392462043183033
-0.009063859006637675
-0.008392462043183033
-0.0003356984817273213
0.007385366598001068
0.010070954451819639
0.011749446860456245
0.012420843823910887
0.0157778286411841
0.02349889372091249
0.02719157701991302
0.02652018005645838
0.022491798275730522
0.015106431677729458
0.007049668116273747
0.0030212863355458916
-0.0003356984817273213
-0.0003356984817273213
-0.0016784924086366065
-0.005706874189364461
-0.009063859006637675
-0.012420843823910887
-0.013092240787365528
-0.011078049897001601
-0.002014190890363927
0.0050354772259098195
0.010070954451819639
0.011749446860456245
0.013092240787365528
0.0157778286411841
0.023163195239185166
0.02752727550164034
0.02652018005645838
0.022491798275730522
0.014435034714274816
0.006378271152819104
-0.0003356984817273213
-0.003692683299000534
-0.004364080262455177
-0.0030212863355458916
-0.0030212863355458916
-0.008392462043183033
-0.011078049897001601
-0.012420843823910887
-0.010070954451819639
-0.0010070954451819635
0.006378271152819104
0.010406652933546959
0.013092240787365528
0.013092240787365528
0.01846341649500267
0.02652018005645838
0.03054856183718624
0.029205767910276948
0.023834592202639806
0.0157778286411841
0.0050354772259098195
-0.0030212863355458916
-0.006042572671091783
-0.005706874189364461
-0.004364080262455177
-0.0030212863355458916
-0.007049668116273747
-0.009735255970092317
-0.011078049897001601
-0.009735255970092317
-0.0003356984817273213
0.007721065079728388
0.012420843823910887
0.014435034714274816
0.014435034714274816
0.01846341649500267
0.02719157701991302
0.03189135576409552
0.03054856183718624
0.024505989166094453
0.012756542305638208
-0.003692683299000534
-0.012420843823910887
-0.014435034714274816
-0.013092240787365528
-0.010070954451819639
-0.004364080262455177
0.002014190890363927
-0.0030212863355458916
-0.0050354772259098195
-0.004364080262455177
0.0053711757076371405
0.013092240787365528
0.016784924086366067
0.01812771801327535
0.017792019531548024
0.020477607385366595
0.02887006942854963
0.033234149691004806
0.0315556572823682
0.017792019531548024
-0.007721065079728388
-0.024505989166094453
-0.03121995880064088
-0.03256275272755016
-0.03121995880064088
-0.02719157701991302
-0.01812771801327535
-0.0030212863355458916
0.017792019531548024
0.023834592202639806
0.021149004348821242
0.02652018005645838
0.030884260318913552
0.032898451209277486
0.03189135576409552
0.029205767910276948
0.029877164873731592
0.03659113450827802
0.029205767910276948
-0.004699778744182497
2.6087129015030133
10.501655603875792
10.97431906614786
10.97431906614786
10.97566186007477
10.97566186007477
10.97566186007477
10.218326085297932
-10.211612115663385
-10.984725719081407
-10.987411306935224
-10.988754100862135
-10.98942549782559
-10.98942549782559
-10.989761196307317
-10.989761196307317
-10.989761196307317
-10.98908979934386
-10.98942549782559
-10.98942549782559
1.4673380636301212
10.964248111696039
10.97431906614786
10.97431906614786
10.97566186007477
10.97566186007477
10.97566186007477
10.97566186007477
10.97566186007477
-2.536202029449912
-10.980025940337224
-10.987075608453498
-10.98808270389868
-10.98908979934386
-10.98908979934386
-10.98908979934386
-10.98942549782559
-10.98942549782559
-10.98942549782559
-7.180926222629131
10.896437018387122
10.97297627222095
10.97431906614786
10.97566186007477
10.97566186007477
10.977004654001679
10.977004654001679
10.977004654001679
10.97566186007477
10.97566186007477
9.503959716182191
-10.81251239795529
-10.985397116044862
-10.98808270389868
-10.988754100862135
-10.98942549782559
-10.98942549782559
-10.98942549782559
-10.98942549782559
-10.98942549782559
4.327489127946898
10.970290684367132
10.97566186007477
10.97566186007477
10.977004654001679
10.977004654001679
10.97566186007477
10.97566186007477
10.97566186007477
10.977004654001679
10.977004654001679
8.660013733119706
2.29584191653315
-7.980560006103608
-10.983718623636225
-10.987747005416953
-10.988754100862135
-10.98942549782559
-10.98942549782559
-10.989761196307317
-10.98908979934386
-2.645639734493019
10.959548332951858
10.97431906614786
10.974990463111313
10.97566186007477
10.977004654001679
10.97566186007477
10.97566186007477
8.562661173418784
4.127412832837415
0.9738612954909589
-1.8950179293507285
-4.289219501029984
-6.324223697261005
-10.945784695201038
-10.986404211490042
-10.988418402380407
-10.98908979934386
-10.989761196307317
-10.989761196307317
-10.98942549782559
-4.979415579461357
10.93537804226749
10.97297627222095
10.97566186007477
10.492256046387427
7.855008773937589
5.701167315175097
3.7004043640802626
2.014526588845655
0.5918364232852674
-0.6113069352254519
-1.6147096971084152
-2.4388494697489893
-3.1847714961470968
-9.961852445258259
-10.985397116044862
-10.987747005416953
-10.98908979934386
-10.98942549782559
-10.98908979934386
-10.98942549782559
-4.809552147707332
10.940077821011673
10.97431906614786
10.975326161593042
10.97566186007477
10.97566186007477
10.97566186007477
10.977004654001679
10.336491950865948
8.609658960860607
6.983535515373465
5.562188143739985
4.2563210498207065
-4.238193331807431
-10.979690241855495
-10.987075608453498
-10.988754100862135
-10.98908979934386
-10.98908979934386
-10.98908979934386
-10.98908979934386
-5.794155794613565
10.888380254825666
10.97431906614786
10.97566186007477
10.97566186007477
10.97566186007477
10.97566186007477
10.977004654001679
10.97566186007477
10.97566186007477
10.97566186007477
10.97566186007477
-6.926466773479818
-10.982711528191043
-10.987747005416953
-10.988754100862135
-10.98908979934386
-10.98942549782559
-10.98942549782559
-10.98908979934386
-10.98908979934386
-7.405844205386434
10.32776379034104
10.97297627222095
10.97566186007477
10.97566186007477
10.97566186007477
10.97566186007477
10.97566186007477
10.97566186007477
10.97566186007477
10.97566186007477
-0.8026550698100251
-10.97431906614786
-10.98673990997177
-10.988418402380407
-10.988754100862135
-10.989761196307317
-10.989761196307317
-10.989761196307317
-10.989761196307317
-10.98908979934386
-6.2718547341115425
10.602365148393988
10.97297627222095
10.974990463111313
10.97566186007477
10.97566186007477
10.97566186007477
10.97566186007477
10.974990463111313
10.97431906614786
10.97566186007477
4.030731670099947
-10.849103532463568
-10.985397116044862
-10.98808270389868
-10.98908979934386
-10.98908979934386
-10.989761196307317
-10.98942549782559
-10.98942549782559
-10.98908979934386
-4.216708628976882
10.872266727702753
10.97297627222095
10.97566186007477
10.974990463111313
10.97566186007477
10.974990463111313
10.97566186007477
10.97566186007477
10.97566186007477
10.97566186007477
6.533699549858853
-9.04438849469749
-10.984390020599678
-10.987747005416953
-10.988754100862135
-10.98908979934386
-10.98908979934386
-10.98942549782559
-10.98942549782559
-10.989761196307317
-2.2015106431677727
10.9367208361944
10.97297627222095
10.974990463111313
10.97566186007477
10.97566186007477
10.97566186007477
10.97566186007477
10.97566186007477
10.97566186007477
10.974990463111313
7.3575036240177
-7.702601663233386
-10.983382925154496
-10.987747005416953
-10.988754100862135
-10.98908979934386
-10.98942549782559
-10.98942549782559
-10.98908979934386
-10.989761196307317
-1.178637369344625
10.944777599755856
10.97297627222095
10.97566186007477
10.97566186007477
10.974990463111313
10.974990463111313
10.97566186007477
10.97566186007477
10.974990463111313
10.97566186007477
6.655558098725871
-7.728114747844663
-10.983382925154496
-10.987747005416953
-10.98908979934386
-10.98908979934386
-10.98942549782559
-10.98942549782559
-10.989761196307317
-10.98908979934386
-0.7361867704280155
10.944777599755856
10.971633478294041
10.974990463111313
10.97566186007477
10.97431906614786
10.974990463111313
10.97566186007477
10.974990463111313
10.97566186007477
10.97566186007477
5.476920729381246
-7.938933394369419
-10.98304722667277
-10.987747005416953
-10.98908979934386
-10.98908979934386
-10.98908979934386
-10.98908979934386
-10.988754100862135
-10.98942549782559
-0.11715877012283514
10.946120393682763
10.97297627222095
10.974990463111313
10.97431906614786
10.97431906614786
10.974990463111313
10.97431906614786
10.97566186007477
10.97566186007477
10.97566186007477
4.48661020828565
-8.170565346761272
-10.983382925154496
-10.987411306935224
-10.988754100862135
-10.98908979934386
-10.989761196307317
-10.989761196307317
-10.98908979934386
-10.98942549782559
0.18698405432211795
10.946120393682763
10.97297627222095
10.97297627222095
10.97431906614786
10.97566186007477
10.97566186007477
10.974990463111313
10.97566186007477
10.97566186007477
10.97566186007477
3.232440680552376
-8.427038986800946
-10.983382925154496
-10.987411306935224
-10.988418402380407
-10.98908979934386
-10.98908979934386
-10.98908979934386
-10.98908979934386
-10.33984893568322
0.9500267032883192
10.951491569390402
10.97297627222095
10.97431906614786
10.974990463111313
10.97566186007477
10.974990463111313
10.974990463111313
10.97566186007477
10.97566186007477
10.97566186007477
1.9708857862211029
-8.72715342946517
-10.983718623636225
-10.98808270389868
-10.988754100862135
-10.98908979934386
-10.98942549782559
-10.98942549782559
-10.98942549782559
-9.165575646601052
1.5432059205004958
10.951491569390402
10.97297627222095
10.97431906614786
10.97566186007477
10.97566186007477
10.97566186007477
10.97566186007477
10.97566186007477
10.97566186007477
10.97566186007477
0.6092927443350882
-8.995040817883574
-10.984390020599678
-10.987747005416953
-10.988754100862135
-10.98942549782559
-10.988754100862135
-10.98908979934386
-10.98942549782559
-8.350499732967117
1.8856183718623636
10.951491569390402
10.97297627222095
10.97431906614786
10.974990463111313
10.97566186007477
10.97431906614786
10.974990463111313
10.974990463111313
10.974990463111313
9.92022583352407
-0.13931486991683834
-8.992355230029755
-10.984054322117952
-10.987747005416953
-10.988418402380407
-10.988754100862135
-10.988754100862135
-10.98942549782559
-10.98942549782559
-7.384359502555885
2.6714885175860226
10.959548332951858
10.97297627222095
10.97431906614786
10.975326161593042
10.97566186007477
10.97566186007477
10.97566186007477
10.97566186007477
10.97566186007477
8.958113984893568
-0.7012741283283741
-9.089707789730678
-10.984054322117952
-10.987747005416953
-10.988754100862135
-10.98908979934386
-10.98942549782559
-10.98908979934386
-10.98942549782559
-6.791180285343708
3.1444876783398183
10.960891126878767
10.97297627222095
10.97431906614786
10.974990463111313
10.97566186007477
10.97566186007477
10.97566186007477
10.97566186007477
10.97566186007477
8.159822995345998
-1.1930724040588998
-9.231708247501336
-10.984054322117952
-10.98808270389868
-10.988754100862135
-10.988754100862135
-10.98908979934386
-10.98908979934386
-10.98908979934386
-6.140260929274433
3.7742580300602735
10.964248111696039
10.97297627222095
10.97431906614786
10.97431906614786
10.97566186007477
10.97566186007477
10.974990463111313
10.97566186007477
10.97566186007477
7.292378118562599
-1.656336308842603
-9.52779430838483
-10.984725719081407
-10.987747005416953
-10.988754100862135
-10.988418402380407
-10.98908979934386
-10.98908979934386
-10.98908979934386
-4.62424658579385
7.2849927519646
10.970290684367132
10.97431906614786
10.97431906614786
10.97431906614786
10.97566186007477
10.97566186007477
10.974990463111313
10.97566186007477
10.97566186007477
4.977401388570993
-3.2821240558480196
-10.775585564965285
-10.985397116044862
-10.98808270389868
-10.988754100862135
-10.988418402380407
-10.988754100862135
-10.98942549782559
-10.98942549782559
-4.72462043183032
5.196276798657206
10.967605096513314
10.97297627222095
10.97431906614786
10.97431906614786
10.974990463111313
10.97566186007477
10.97566186007477
10.97566186007477
10.97566186007477
5.556145571068893
-2.9249408712901497
-10.66480506599527
-10.985732814526589
-10.98808270389868
-10.988754100862135
-10.988754100862135
-10.98908979934386
-10.98908979934386
-10.301915007248036
-4.008911268787671
5.913328755626764
10.968276493476766
10.97297627222095
10.97431906614786
10.97431906614786
10.97431906614786
10.97566186007477
10.97566186007477
10.974990463111313
10.974990463111313
4.652445258258945
-3.546318760967422
-10.788342107270923
-10.986068513008314
-10.98808270389868
-10.988754100862135
-10.988754100862135
-10.98908979934386
-10.98908979934386
-10.385503929198137
-3.7742580300602735
6.1281757839322495
10.968947890440223
10.97297627222095
10.97431906614786
10.974990463111313
10.974990463111313
10.975326161593042
10.974990463111313
10.97566186007477
10.974990463111313
4.271763179980164
-3.800442511635003
-10.846417944609751
-10.985732814526589
-10.988418402380407
-10.988754100862135
-10.988418402380407
-10.98908979934386
-10.98908979934386
-10.230075532158388
-3.5392690928511485
6.320866712443732
10.968947890440223
10.97431906614786
10.97431906614786
10.974990463111313
10.974990463111313
10.97566186007477
10.97566186007477
10.97566186007477
10.97566186007477
3.5902952620737008
-4.211337453269245
-10.906507972838941
-10.986068513008314
-10.988418402380407
-10.98908979934386
-10.98908979934386
-10.98908979934386
-10.989761196307317
-10.03570611123827
-3.0377355611505297
6.9056534676127255
10.970290684367132
10.97297627222095
10.97431906614786
10.97431906614786
10.97431906614786
10.974990463111313
10.97566186007477
10.97566186007477
10.650705729762722
3.0149080643930724
-4.730998702983138
-10.944777599755856
-10.986404211490042
-10.98808270389868
-10.988418402380407
-10.98942549782559
-10.98908979934386
-10.98908979934386
-9.28609140154116
-2.241458762493324
7.699244678416113
10.970290684367132
10.97297627222095
10.97431906614786
10.97566186007477
10.974990463111313
10.97566186007477
10.97566186007477
10.97566186007477
9.874570840009156
2.447577630273899
-5.3201495384145865
-10.964919508659495
-10.98673990997177
-10.988418402380407
-10.988754100862135
-10.988754100862135
-10.98908979934386
-10.98942549782559
-9.046738384069581
-1.8654764629587244
8.300816357671472
10.970290684367132
10.97297627222095
10.97431906614786
10.97566186007477
10.97431906614786
10.97566186007477
10.97566186007477
10.97566186007477
9.61675440604257
1.8486915388723584
-5.951598382543679
-10.973647669184405
-10.987075608453498
-10.988418402380407
-10.988754100862135
-10.98908979934386
-10.98908979934386
-10.988754100862135
-8.60932326237888
-0.9365987640192264
9.559685664148926
10.971633478294041
10.97297627222095
10.97431906614786
10.975326161593042
10.97431906614786
10.97431906614786
10.97566186007477
10.97566186007477
10.306950484473946
1.831906614785992
-6.676707103074691
-10.979018844892042
-10.987411306935224
-10.988418402380407
-10.988754100862135
-10.98908979934386
-10.98908979934386
-10.98942549782559
-9.145433737697413
-0.9349202716105898
10.003479056992447
10.971633478294041
10.97297627222095
10.97431906614786
10.97566186007477
10.975326161593042
10.974990463111313
10.97566186007477
10.974990463111313
10.13104448004883
1.0524147402151522
-7.652918287937743
-10.982040131227588
-10.987747005416953
-10.988754100862135
-10.988754100862135
-10.988754100862135
-10.98908979934386
-10.98942549782559
-9.605340657663843
-1.1363393606469827
10.155214770733195
10.972304875257496
10.97431906614786
10.97431906614786
10.975326161593042
10.97566186007477
10.97566186007477
10.97566186007477
10.97566186007477
10.52314030670634
1.3558861676966505
-7.5038681620508125
-10.98170443274586
-10.987411306935224
-10.988754100862135
-10.98908979934386
-10.98908979934386
-10.98908979934386
-10.98908979934386
-9.636224917982757
-0.9570763714045929
10.35260547798886
10.97297627222095
10.97431906614786
10.97566186007477
10.97566186007477
10.97566186007477
10.97566186007477
10.97566186007477
10.97566186007477
10.97566186007477
2.0037842374303807
-7.1899900816357665
-10.981033035782406
-10.987411306935224
-10.988418402380407
-10.98908979934386
-10.98908979934386
-10.98942549782559
-10.98942549782559
-10.06793316548409
-1.5418631265735865
9.911497672999161
10.971633478294041
10.97297627222095
10.974990463111313
10.97566186007477
10.97566186007477
10.974990463111313
10.97566186007477
10.97566186007477
10.97566186007477
2.1481345845731283
-7.1272144655527585
-10.981368734264134
-10.987411306935224
-10.988418402380407
-10.988754100862135
-10.98942549782559
-10.988754100862135
-10.98908979934386
-10.61075761043717
-1.8272068360418097
9.802059967956055
10.971633478294041
10.97297627222095
10.97431906614786
10.97431906614786
10.97566186007477
10.97431906614786
10.97566186007477
10.97566186007477
10.97566186007477
2.52143129625391
-6.883497367818723
-10.980025940337224
-10.987411306935224
-10.988418402380407
-10.98908979934386
-10.98908979934386
-10.98908979934386
-10.989761196307317
-10.694010833905546
-1.9796139467460134
9.592584115358205
10.972304875257496
10.97297627222095
10.97297627222095
10.97297627222095
10.974990463111313
10.97566186007477
10.974990463111313
10.97431906614786
10.97566186007477
3.0068513008316167
-6.786816205081252
-10.980697337300677
-10.987075608453498
-10.988418402380407
-10.988754100862135
-10.98908979934386
-10.98908979934386
-10.98942549782559
-10.98908979934386
-2.3226977950713357
9.474418249790189
10.971633478294041
10.97431906614786
10.97431906614786
10.97431906614786
10.97566186007477
10.97566186007477
10.97431906614786
10.97431906614786
10.97566186007477
3.317708094911116
-6.615274280918593
-10.980361638818952
-10.987075608453498
-10.988754100862135
-10.98942549782559
-10.98942549782559
-10.98942549782559
-10.98908979934386
-10.965255207141222
-2.2941634241245135
9.579156176089112
10.972304875257496
10.97431906614786
10.97431906614786
10.974990463111313
10.97566186007477
10.97566186007477
10.97566186007477
10.97566186007477
10.97566186007477
3.344563973449302
-6.655893797207599
-10.980025940337224
-10.987411306935224
-10.988418402380407
-10.98942549782559
-10.98942549782559
-10.98942549782559
-10.988754100862135
-10.98942549782559
-2.1044937819485767
9.722835126268405
10.972304875257496
10.97431906614786
10.97431906614786
10.97431906614786
10.97566186007477
10.97566186007477
10.97566186007477
10.97566186007477
10.97566186007477
3.3190508888380252
-6.794537270160982
-10.980697337300677
-10.987411306935224
-10.988754100862135
-10.98908979934386
-10.98942549782559
-10.98942549782559
-10.98942549782559
-10.98942549782559
-2.029297322041657
9.865171282520791
10.972640573739222
10.97431906614786
10.97431906614786
10.97566186007477
10.974990463111313
10.97431906614786
10.97566186007477
10.97566186007477
10.97566186007477
3.105546654459449
-6.999649042496375
-10.981368734264134
-10.987411306935224
-10.988418402380407
-10.98908979934386
-10.98942549782559
-10.98908979934386
-10.98942549782559
-10.98942549782559
-1.7056839856565194
10.216983291371024
10.971633478294041
10.97431906614786
10.97566186007477
10.975326161593042
10.97566186007477
10.97566186007477
10.97566186007477
10.97566186007477
10.97566186007477
2.800732433051041
-7.289021133745326
-10.98170443274586
-10.987411306935224
-10.988754100862135
-10.98908979934386
-10.98942549782559
-10.98942549782559
-10.98908979934386
-10.894758525978485
-1.4169832913710232
10.376104371709772
10.97297627222095
10.974990463111313
10.97566186007477
10.974990463111313
10.97566186007477
10.97566186007477
10.97566186007477
10.97566186007477
10.97566186007477
2.7147936217288473
-7.378652628366522
-10.982375829709316
-10.987411306935224
-10.988418402380407
-10.98908979934386
-10.98908979934386
-10.98908979934386
-10.98908979934386
-10.560402838178073
-1.013473716334783
10.701731898985274
10.971633478294041
10.97431906614786
10.97431906614786
10.974990463111313
10.974990463111313
10.97566186007477
10.97566186007477
10.97566186007477
10.97566186007477
2.395880064087892
-7.814053559166856
-10.982711528191043
-10.987411306935224
-10.988418402380407
-10.98908979934386
-10.98908979934386
-10.98942549782559
-10.98942549782559
-10.576180666819257
-0.7590142671854733
10.779613946746013
10.971633478294041
10.97431906614786
10.974990463111313
10.97431906614786
10.97566186007477
10.974990463111313
10.97566186007477
10.97566186007477
10.97566186007477
2.2253452353704124
-7.9896238651102465
-10.98304722667277
-10.987411306935224
-10.988754100862135
-10.98942549782559
-10.98908979934386
-10.98908979934386
-10.98942549782559
-10.334142061493857
-0.42465857938506135
10.856153200579842
10.972640573739222
10.97431906614786
10.974990463111313
10.97566186007477
10.97566186007477
10.97566186007477
10.97566186007477
10.97566186007477
10.97566186007477
1.6969558251316088
-8.252811474784465
-10.983382925154496
-10.987411306935224
-10.98908979934386
-10.98908979934386
-10.988754100862135
-10.98908979934386
-10.98942549782559
-10.139101243610284
0.11783016708628975
10.912550545510031
10.97297627222095
10.97431906614786
10.97431906614786
10.97566186007477
10.97566186007477
10.97566186007477
10.97566186007477
10.97566186007477
10.97566186007477
1.4928511482413975
-8.47135118638895
-10.983718623636225
-10.987747005416953
-10.988418402380407
-10.98908979934386
-10.98908979934386
-10.98908979934386
-10.98908979934386
-9.977294575417714
0.213168535896849
10.915236133363852
10.972304875257496
10.97431906614786
10.97566186007477
10.97566186007477
10.974990463111313
10.97566186007477
10.97566186007477
10.97566186007477
10.97566186007477
1.212207217517357
-8.730510414282444
-10.984054322117952
-10.987747005416953
-10.988754100862135
-10.98942549782559
-10.98908979934386
-10.98908979934386
-10.98942549782559
-9.815152208743418
0.35416189822232397
10.92664988174258
10.972304875257496
10.97431906614786
10.97431906614786
10.974990463111313
10.974990463111313
10.97566186007477
10.974990463111313
10.97566186007477
10.97566186007477
0.8630807965209428
-9.096421759365224
-10.984390020599678
-10.987747005416953
-10.988754100862135
-10.98908979934386
-10.98908979934386
-10.98908979934386
-10.98908979934386
-9.631189440756847
0.7784847791256579
10.940749217975128
10.972304875257496
10.97431906614786
10.97431906614786
10.97431906614786
10.97566186007477
10.975326161593042
10.974990463111313
10.97566186007477
10.97566186007477
0.7516289005874722
-9.16188296330205
-10.984054322117952
-10.987747005416953
-10.988418402380407
-10.98908979934386
-10.98908979934386
-10.98908979934386
-10.98942549782559
-9.391836423285266
1.115861753261616
10.948805981536584
10.97297627222095
10.97431906614786
10.97431906614786
10.974990463111313
10.97566186007477
10.97566186007477
10.97566186007477
10.97566186007477
10.97566186007477
0.6280918593118181
-9.364644846265353
-10.984390020599678
-10.987747005416953
-10.988754100862135
-10.98908979934386
-10.98908979934386
-10.98908979934386
-10.98942549782559
-9.35121690699626
1.1605096513313495
10.951491569390402
10.97297627222095
10.973647669184405
10.97431906614786
10.97566186007477
10.97566186007477
10.97566186007477
10.97566186007477
10.97566186007477
10.97566186007477
0.5206683451590752
-9.23103685053788
-10.984390020599678
-10.98808270389868
-10.988754100862135
-10.98942549782559
-10.98942549782559
-10.98908979934386
-10.98942549782559
-8.800335698481726
1.5690547035934994
10.95417715724422
10.97297627222095
10.97431906614786
10.97431906614786
10.974990463111313
10.97566186007477
10.974990463111313
10.97566186007477
10.97566186007477
10.752758068207825
0.3870603494316014
-9.187731746395054
-10.984390020599678
-10.987411306935224
-10.988754100862135
-10.98942549782559
-10.98908979934386
-10.98942549782559
-10.98942549782559
-8.733867399099717
1.5250782024872205
10.95283436331731
10.97297627222095
10.97431906614786
10.97431906614786
10.97431906614786
10.97566186007477
10.97566186007477
10.97566186007477
10.97566186007477
10.21966887922484
-0.035919737544823374
-9.239429312581064
-10.984390020599678
-10.987411306935224
-10.988754100862135
-10.98942549782559
-10.98942549782559
-10.98942549782559
-10.98942549782559
-8.492500190737772
1.8386205844205383
10.955184252689403
10.97297627222095
10.974990463111313
10.974990463111313
10.97431906614786
10.97566186007477
10.97566186007477
10.97566186007477
10.97566186007477
9.568413824673838
-0.31992065308613715
-9.15080491340505
-10.984054322117952
-10.987747005416953
-10.988754100862135
-10.98908979934386
-10.98942549782559
-10.98942549782559
-10.989761196307317
-7.561608300907912
2.330418860151064
10.95551995117113
10.97297627222095
10.97431906614786
10.974990463111313
10.974990463111313
10.97566186007477
10.97566186007477
10.974990463111313
10.97566186007477
8.676798657206072
-0.9671473258564125
-9.425741969939725
-10.984725719081407
-10.98808270389868
-10.988754100862135
-10.98908979934386
-10.98908979934386
-10.98908979934386
-10.989761196307317
-6.940230411230639
2.773205157549401
10.958205539024949
10.97297627222095
10.974990463111313
10.974990463111313
10.97431906614786
10.97566186007477
10.97566186007477
10.97566186007477
10.974990463111313
7.808010986495765
-0.9886320286869611
-8.871503776607918
-10.984390020599678
-10.987747005416953
-10.988754100862135
-10.988418402380407
-10.988754100862135
-10.98942549782559
-10.989761196307317
-5.965697718776226
3.370077058060578
10.959548332951858
10.97297627222095
10.97431906614786
10.974990463111313
10.974990463111313
10.974990463111313
10.97566186007477
10.97566186007477
10.974990463111313
6.247684443427176
-1.6895704585336075
-9.112535286488137
-10.984390020599678
-10.987411306935224
-10.988754100862135
-10.98908979934386
-10.98942549782559
-10.98942549782559
-10.20221255817502
-4.908247501335165
4.182467383840696
10.962233920805676
10.97297627222095
10.97431906614786
10.97566186007477
10.97431906614786
10.97566186007477
10.97566186007477
10.97566186007477
10.97431906614786
4.648416876478218
-2.451606012054627
-9.418020904859999
-10.984725719081407
-10.987411306935224
-10.988418402380407
-10.988754100862135
-10.98942549782559
-10.98942549782559
-8.786236362249179
-3.6758983749141683
5.161364156557565
10.966262302586404
10.97297627222095
10.97431906614786
10.97566186007477
10.975326161593042
10.97431906614786
10.97566186007477
10.97566186007477
8.762737468528266
3.141802090486
-3.6429999237048905
-10.037720302128633
-10.985061417563134
-10.987747005416953
-10.988418402380407
-10.98908979934386
-10.98942549782559
-9.814816510261691
-7.208789196612497
-1.8762188143739988
7.029861905851835
10.970290684367132
10.97297627222095
10.974990463111313
10.97566186007477
10.97566186007477
10.97566186007477
10.97566186007477
10.454657816433967
7.017105363546197
1.5411917296101318
-5.048233768215456
-10.837018387121384
-10.985732814526589
-10.987747005416953
-10.988754100862135
-10.98908979934386
-10.23611810482948
-7.6347905699244665
-5.070725566491188
0.4656137941557945
9.15080491340505
10.972304875257496
10.97431906614786
10.97566186007477
10.97566186007477
10.97566186007477
10.97566186007477
10.97566186007477
9.286427100022888
6.05163653009842
0.29910734721904325
-6.341008621347371
-10.963912413214313
-10.986404211490042
-10.98808270389868
-10.988418402380407
-10.69098954757
-7.33366903181506
-4.552407110704204
-1.643915465018692
4.284519722285801
10.958205539024949
10.97297627222095
10.97431906614786
10.97431906614786
10.97566186007477
10.97566186007477
10.97566186007477
6.269169146257725
3.6131227588311594
-0.34476234073395895
-7.689845120927749
-10.982375829709316
-10.987747005416953
-10.988418402380407
-10.98908979934386
-10.98908979934386
-10.98908979934386
-10.98942549782559
-10.98942549782559
-8.396154726482031
-0.22861066605630578
10.548653391317615
10.97297627222095
10.97431906614786
10.975326161593042
10.97566186007477
10.97566186007477
10.97566186007477
8.116853589684903
7.954375524528878
6.270511940184633
2.142092011902037
-3.4493018997482268
-8.707682917524986
-10.98170443274586
-10.987075608453498
-7.664332036316472
-3.2082703898680096
0.03189135576409552
2.181033035782406
3.930693522545205
8.710368505378804
10.971633478294041
10.974990463111313
10.974990463111313
10.974990463111313
10.97566186007477
10.97566186007477
10.97566186007477
9.7510337987335
6.592782482642861
3.1887998779278246
-2.9252765697718774
-9.920561532005797
-10.984725719081407
-10.98808270389868
-10.98808270389868
-10.98908979934386
-10.98908979934386
-10.912214847028306
-8.216556038757915
-5.550774395361257
-0.035919737544823374
8.427038986800946
10.970290684367132
10.97297627222095
10.97431906614786
10.97431906614786
10.974990463111313
10.97431906614786
7.319233997100785
4.9048905165178915
1.8392919813839932
-3.2858167391470205
-9.08702220187686
-10.983382925154496
-10.987747005416953
-10.98808270389868
-10.988418402380407
-10.98908979934386
-10.549324788281071
-7.97787441824979
-5.3181353475242235
0.1550926985580224
8.349156939040206
10.971633478294041
10.97297627222095
10.97431906614786
10.97431906614786
10.97566186007477
10.97566186007477
8.017486839093612
5.529289692530709
2.838330663004501
-2.355596246280613
-8.23099107347219
-10.981033035782406
-10.987411306935224
-10.98808270389868
-10.98908979934386
-10.98908979934386
-9.694300755321583
-7.067460135805295
-4.463782711528191
0.8483100633249409
8.692912184328986
10.972640573739222
10.97566186007477
10.97566186007477
10.97566186007477
10.977004654001679
10.977004654001679
8.459266041046769
6.259433890287632
3.3418783855954834
-1.7553673609521627
-7.302449073014419
-10.972640573739222
-10.98673990997177
-10.98808270389868
-10.988754100862135
-10.988754100862135
-8.724467841611352
-6.2530556191348134
-3.8541542687113757
1.3337300679026474
8.864118410009917
10.97297627222095
10.97566186007477
10.97566186007477
10.97566186007477
10.977004654001679
10.97566186007477
8.354528114747843
6.2678263523308155
3.3965972381170366
-1.5814755474174105
-6.95533684290837
-10.958876935988403
-10.98673990997177
-10.98808270389868
-10.988754100862135
-10.988754100862135
-8.120546272983901
-5.657862211032273
-3.2713817044327453
1.6862134737163343
8.743938353551536
10.97297627222095
10.974990463111313
10.97431906614786
10.97566186007477
10.97566186007477
10.97566186007477
8.165865568017091
6.158724345769436
3.394247348744945
-1.398184176394293
-6.530678263523308
-10.868238345922025
-10.986404211490042
-10.987747005416953
-10.988754100862135
-10.299900816357672
-7.613305867093919
-5.330220492866407
-2.975967040512703
1.7882658121614403
8.552590218966964
10.971633478294041
10.974990463111313
10.97566186007477
10.974990463111313
10.97566186007477
10.594308384832532
7.668360418097199
5.7411154345006485
2.8289311055161366
-1.8379491874570841
-6.787823300526435
-10.91389333943694
-10.986068513008314
-10.987747005416953
-10.988418402380407
-10.069947356374454
-7.321919584954604
-5.132829785610743
-2.8061036087586784
2.1239642938887613
8.80234988937209
10.971633478294041
10.974990463111313
10.97566186007477
10.97431906614786
10.97431906614786
9.698664835584038
7.041275654230565
4.973373006790265
2.2434729533836877
-2.196475165941863
-7.162798504615853
-10.95652704661631
-10.986404211490042
-10.98808270389868
-10.988754100862135
-9.900083924620429
-7.332997634851606
-5.2332036316472115
-2.928297856107423
2.1521629663538566
8.878217746242466
10.970290684367132
10.97431906614786
10.974990463111313
10.97431906614786
10.97431906614786
9.266956588082705
6.788830395971617
4.940810254062714
2.1232928969253066
-2.6365758754863813
-7.5992065308613705
-10.969954985885403
-10.98673990997177
-10.98808270389868
-10.988418402380407
-10.06726176852064
-7.736507209887846
-5.670954451819638
-3.193499656672007
2.0621957732509344
8.956099794003205
10.970290684367132
10.97431906614786
10.97431906614786
10.97431906614786
10.974990463111313
9.086350804913405
6.674692912184328
4.878034637979705
1.913145647364004
-2.9883878843366136
-8.09570458533608
-10.978683146410315
-10.98673990997177
-10.988418402380407
-10.988754100862135
-10.551338979171433
-7.80364690623331
-5.6769970244907295
-3.229755092698558
2.271671625848783
9.304554818036165
10.971633478294041
10.97431906614786
10.974990463111313
10.97431906614786
10.97566186007477
9.407278553444725
6.813000686655985
5.0002288853284504
1.8594338902876324
-3.4352025635156784
-8.748973830777445
-10.982711528191043
-10.987075608453498
-10.98808270389868
-10.988754100862135
-10.854474708171205
-8.085969329365987
-5.879087510490577
-3.252582589456016
2.592263675898375
9.959166857404439
10.97297627222095
10.97297627222095
10.974990463111313
10.97566186007477
10.974990463111313
10.024963759822995
7.124528877698939
5.18687724116884
1.7422751201647975
-3.8722819867246514
-9.522423132677194
-10.984725719081407
-10.987411306935224
-10.988418402380407
-10.988754100862135
-10.988754100862135
-7.826138704509042
-5.147600518806745
-2.297856107423514
4.245578698405432
10.951491569390402
10.97297627222095
10.97431906614786
10.97566186007477
10.97566186007477
10.974990463111313
10.974990463111313
10.97566186007477
10.977004654001679
10.97566186007477
10.97566186007477
10.97566186007477
9.060837720302127
-10.709117265583275
-10.984725719081407
-1.4988937209124895
8.008087281605249
10.968947890440223
10.97566186007477
10.97566186007477
10.977004654001679
10.977004654001679
10.827954528114747
10.67084763866636
10.513740749217975
0.26016632333867395
-10.978683146410315
-10.987075608453498
-10.988418402380407
-10.988418402380407
-10.98942549782559
-10.98942549782559
-10.98942549782559
-10.989761196307317
-10.989761196307317
-10.98942549782559
-10.989761196307317
-10.989761196307317
-10.989761196307317
-10.989761196307317
4.24960708018616
10.970290684367132
10.97566186007477
10.97566186007477
10.97566186007477
10.97566186007477
3.4170748455024027
-10.97062638284886
-10.98673990997177
-10.988754100862135
-10.98908979934386
-10.98942549782559
-10.989761196307317
-10.98942549782559
-10.989761196307317
-10.98942549782559
-10.989761196307317
-10.990096894789042
-10.989761196307317
-10.989761196307317
-6.694834821087968
10.795727473868924
10.97431906614786
10.977004654001679
10.97566186007477
10.97566186007477
10.97431906614786
6.52027161058976
-10.934706645304034
-10.986404211490042
-10.988418402380407
-10.98908979934386
-10.98908979934386
-10.98908979934386
-10.98908979934386
-10.98942549782559
-10.989761196307317
-10.989761196307317
-10.989761196307317
-10.989761196307317
-10.989761196307317
-2.5858854047455555
10.958205539024949
10.97431906614786
10.97566186007477
10.97566186007477
10.97566186007477
10.974990463111313
10.743358510719464
-10.328099488822765
-10.985061417563134
-10.98808270389868
-10.988754100862135
-10.98942549782559
-10.98908979934386
-10.98942549782559
-10.98942549782559
-10.990096894789042
-10.989761196307317
-10.989761196307317
-10.989761196307317
-9.229358358129243
0.7194018463416494
10.967605096513314
10.97566186007477
10.977004654001679
10.977004654001679
10.977004654001679
10.97566186007477
7.039932860303654
-10.831311512932022
-10.986068513008314
-10.988418402380407
-10.98908979934386
-10.98908979934386
-10.98942549782559
-10.989761196307317
-10.98908979934386
-10.989761196307317
-10.989761196307317
-10.98942549782559
-10.989761196307317
-5.828061341268024
0.1560997940032044
10.95417715724422
10.97431906614786
10.97566186007477
10.977004654001679
10.97566186007477
10.97431906614786
2.8020752269779505
-10.94175631342031
-10.986404211490042
-10.988418402380407
-10.98908979934386
-10.98908979934386
-10.98942549782559
-10.98942549782559
-10.989761196307317
-10.98942549782559
-10.989761196307317
-10.98908979934386
-8.986648355840392
-2.8484016174563207
2.5415732051575493
10.959548332951858
10.974990463111313
10.97566186007477
10.977004654001679
10.97566186007477
10.97566186007477
4.408056763561455
-10.862867170214388
-10.986068513008314
-10.988418402380407
-10.98908979934386
-10.98908979934386
-10.98908979934386
-10.98942549782559
-10.989761196307317
-10.98942549782559
-10.989761196307317
-10.98942549782559
-8.365270466163118
-2.2058747234302283
3.191485465781643
10.962233920805676
10.974990463111313
10.97566186007477
10.977004654001679
10.97566186007477
10.974990463111313
2.879957274738689
-10.895765621423665
-10.986068513008314
-10.988418402380407
-10.98942549782559
-10.98908979934386
-10.98908979934386
-10.98942549782559
-10.989761196307317
-10.989761196307317
-10.98942549782559
-10.98942549782559
-6.899946593423361
-0.7798275730525673
4.389257648584725
10.964919508659495
10.97566186007477
10.97566186007477
10.977004654001679
10.97566186007477
10.97566186007477
0.46359960326543065
-10.943434805828947
-10.986404211490042
-10.98808270389868
-10.98908979934386
-10.98942549782559
-10.98908979934386
-10.98942549782559
-10.98942549782559
-10.98942549782559
-10.98942549782559
-10.102510109102008
-4.247592889295795
1.4898298619058519
6.365850308995192
10.968947890440223
10.97566186007477
10.97566186007477
10.977004654001679
10.977004654001679
10.97566186007477
-0.26889448386358433
-10.94914168001831
-10.98673990997177
-10.988418402380407
-10.98908979934386
-10.98942549782559
-10.98942549782559
-10.989761196307317
-10.989761196307317
-10.989761196307317
-10.98942549782559
-9.794003204394599
-3.91995117112993
1.7526817730983444
6.6035248340581365
10.970290684367132
10.97431906614786
10.97566186007477
10.97566186007477
10.97566186007477
10.97431906614786
-2.8326237888151367
-10.970290684367132
-10.987075608453498
-10.988418402380407
-10.98908979934386
-6.332280460822461
10.96156252384222
10.97566186007477
10.97566186007477
10.97566186007477
10.97566186007477
10.976333257038224
10.97566186007477
10.97566186007477
10.97566186007477
10.977004654001679
10.97566186007477
10.799755855649654
6.8331425955596234
3.629907682917525
0.7616998550392919
-1.6398870832379644
-3.66683451590753
-5.360769054703594
-6.753246356908521
-7.872465094987411
-8.726146334019989
-9.348867017624169
-9.774532692454414
-10.023620965896086
-10.118623636224918
-10.095460440985732
-9.951110093842985
-9.688593881132219
-9.33006790264744
-8.89265278095674
-8.402197299153125
-7.881193255512321
-7.3118486305027846
-6.678385595483329
-5.983825436789502
-5.239917601281757
-4.503395132372016
-3.781643396658274
-3.0699626153963533
-2.401586938277256
-1.7352254520485235
-1.0725566491187917
-0.4236514839398794
0.1977264057373922
0.7858701457236591
1.3337300679026474
1.8245212481879913
2.283756771190966
2.7295643549248494
3.1656366826886395
3.572838941023881
3.919279774166476
4.199252307927062
4.4389410238803695
4.684672312504768
4.9572594796673535
5.239246204318303
5.501091020065614
5.715938048371099
5.891172655832761
6.024780651560235
6.105348287174792
-2.4133363851377125
-10.965926604104675
-10.98673990997177
-10.988418402380407
-10.988754100862135
-4.267063401235981
10.964248111696039
10.97566186007477
10.97566186007477
10.977004654001679
10.977004654001679
10.977676050965131
10.97566186007477
10.977004654001679
10.977004654001679
10.977004654001679
10.97566186007477
10.97566186007477
10.97566186007477
10.977004654001679
10.977004654001679
6.422247653925384
-10.82627603570611
-10.985732814526589
-10.987747005416953
-10.98808270389868
-4.650431067368581
10.960891126878767
10.97431906614786
10.97566186007477
10.97566186007477
10.97566186007477
10.97566186007477
10.974990463111313
10.97566186007477
10.97566186007477
10.97566186007477
10.97566186007477
10.67084763866636
6.012695506218051
4.006561379415579
2.16424811169604
-0.138979171435111
-2.1897611963073165
-3.240497444113832
-3.536247806515602
-2.820202944991226
-0.09433127336537728
2.2092317082475015
3.4452735179674985
4.028717479209583
4.120698863202868
4.771953917753872
6.226199740596627
5.527946898603799
3.3143511100938428
1.584161135271229
0.14602883955138474
-1.1081406881818874
-2.1488059815365834
-3.01020828564889
-3.7091325246051725
-4.257328145265888
-4.667887388418403
-4.955245288776989
-5.143236438544289
-5.353383688105592
-5.6004577706569
-5.18687724116884
-5.024734874494545
-4.905561913481345
-4.689036392767223
-4.442633707179369
-4.1723964293888764
-3.879667353322652
-3.563439383535515
-3.228412298771649
-2.879957274738689
-2.5261310749980925
-2.1716334782940407
-1.8174715800717174
-1.4686808575570305
-1.1262684061951629
-0.7932555123216601
-0.6139925230792705
-2.1931181811245897
-4.938460364690623
-7.197039749752041
-8.4203250171664
-7.255451285572594
-5.707881284809644
-4.471168078126191
-3.5157701991302353
-2.79334706645304
-1.4102693217364766
1.9950560769054702
5.4232089723048755
7.244037537193866
7.640161745632105
6.517586022735943
4.770611123826962
3.3150225070572974
2.1612268253604943
1.4028839551384755
0.4481574731059739
-1.5418631265735865
-4.173739223315785
-6.647165636682688
-8.82014190890364
-10.072968642710002
-8.65094987411307
-6.570962081330586
-4.730998702983138
-3.1908140688181885
-1.9416800183108263
0.30582131685358965
4.572549019607843
8.694254978255893
10.964248111696039
10.97297627222095
10.97431906614786
10.175356679636835
8.749309529259175
7.44277103837644
6.4101625085832
5.236560616464484
2.873243305104143
-0.22793926909285112
-3.0820477607385364
-5.743465323872739
-7.359182116426336
-6.102662699320973
-4.259006637674525
-2.814831769283589
-1.529777981231403
-0.3091783016708629
1.978271152819104
6.238284885938811
10.31769283588922
10.97297627222095
10.97431906614786
10.97566186007477
10.974990463111313
10.29486533913176
8.887617303730831
7.700587472343022
6.29736781872282
3.8521400778210113
0.6240634775310901
-2.401251239795529
-5.182177462424658
-6.980514229037918
-6.176180666819256
-4.579598687724117
-3.1122606240939956
-1.8308995193408104
-0.7415579461356527
1.3699855039291982
5.397024490730144
9.298512245365073
10.971633478294041
10.97431906614786
10.97431906614786
10.97566186007477
9.563042648966201
8.158480201419087
6.97145037003128
5.5856870374608985
3.1250171663996333
-0.035919737544823374
-2.9470969710841532
-5.720973525597009
-7.505546654459448
-6.8331425955596234
-5.503105210955977
-4.171725032425421
-2.8846570534828713
-1.7879301136797132
0.31454947737850003
4.052216372930495
7.781155107957579
10.313664454108492
10.97297627222095
10.964919508659495
9.585870145723659
8.166536964980544
6.745189593347066
5.478263523308155
4.026703288319219
1.6486152437628747
-1.3082169832913708
-4.063630121309225
-6.576668955519951
-8.068848706797894
-7.47902647440299
-6.363500419623102
-5.236560616464484
-4.12674143587396
-3.12166018158236
-1.5848325322346837
1.20683604180972
3.851804379339284
5.37755397878996
5.799191271839475
5.139879453727016
4.019989318684672
2.91621271076524
1.9118028534370946
1.033615625238422
0.07217517357137408
-1.3115739681086442
-2.8886854352635996
-4.250614175631342
-5.354055085069047
-5.844174868390936
-5.336934462500953
-4.702800030518043
-4.111970702677959
-3.5872739757381544
-3.148180361638819
-2.5281452658884564
-1.6204165712977796
-0.9211566338597695
-0.6895246814679179
-0.7663996337834744
-1.0571145189593345
-1.3149309529259174
-1.4404821850919354
-1.5391775387197681
-1.6090028229190507
-1.578118562600137
-1.3511863889524682
-0.9839322499427786
-0.5253681239032578
0.03860532539864195
0.6267490653849087
1.0081025406271458
1.2981460288395514
1.5969176775768672
1.9265735866330969
2.242130159456779
2.3616388189517052
2.0662241550316627
1.7372396429388877
1.665400167849241
1.9279163805600061
2.5966277561608297
3.30092317082475
3.944792858777752
4.495338368810559
4.907576104371709
5.400381475547417
6.216800183108263
7.151384756237125
7.994659342336155
8.725139238574807
9.023239490348669
8.538490882734417
7.91879148546578
7.199725337605858
6.494758525978486
5.771999694819562
4.654795147631036
2.97261005569543
1.3840848401617456
0.37430380712596323
-0.1534142061493858
-0.10171663996337835
0.24405279621576256
0.5387960631723507
0.7945983062485694
0.990646219577325
1.4814373998626686
2.4348210879682615
3.493614099336232
4.502052338445106
5.4232089723048755
5.776028076600289
5.215075913633936
4.428198672465094
3.6654917219806205
3.0538490882734415
2.524116884107728
1.5304493781948578
-0.011078049897001601
-1.4089265278095673
-2.2105745021744103
-2.4324711985961702
-2.1075150682841226
-1.6137026016632334
-1.0987411306935224
-0.6099641412985427
-0.2568093385214008
0.05874723430228122
0.8603952086671244
1.8809185931181807
2.6933089188982984
3.367391470206759
3.571496147096971
2.9900663767452507
2.2767071030746933
1.578789959563592
0.9879606317235063
0.49179827573052565
-0.44412909132524603
-1.9030746929121845
-3.2015564202334628
-3.935393301289387
-4.082764934767682
-3.59163805600061
-2.9249408712901497
-2.3367971313038836
-1.8043793392843517
-1.3968413824673838
-0.9181353475242238
-0.043976501106279084
0.9678187228198671
1.843320363164721
2.5845426108186462
2.8437018387121387
2.286106660563058
1.6123598077363241
1.0027313649195086
0.5018692301823452
0.055390249485008015
-0.8355535210193025
-2.214602883955138
-3.4533302815289537
-4.199923704890516
-4.399328603036546
-4.042145418478675
-3.5224841687647825
-3.098832684824903
-2.694987411306935
-2.3576104371709774
-1.9487296864271002
-1.1208972304875255
-0.09030289158464942
0.8429388876173036
1.7117265583276113
2.08032349126421
1.660700389105058
1.137010757610437
0.7100022888532844
0.3581902800030518
0.050690470740825506
-0.6193636987869078
-1.8040436408026246
-2.854444190127413
-3.370748455024032
-3.2962233920805675
-2.6496681162737468
-1.8198214694438086
-0.9725185015640497
-0.2004119935912108
0.4588998245212481
1.180987258716716
2.2763714045929655
3.5177843900205996
4.577248798352026
5.501091020065614
5.89385824368658
5.415152208743419
4.781353475242237
4.138155184252689
3.502342259861143
2.855115587090867
1.777187762264439
0.1279011215381094
-1.4586099031052109
-2.5388876173037307
-3.110917830167086
-3.1569085221637287
-3.0152437628747997
-2.8430304417486836
-2.6906233310444803
-2.6046845197222854
-2.3784237430380712
-1.7701380941481648
-0.9658045319295033
-0.16952773327229725
0.5790798809796293
0.8395819028000304
0.3313344014648661
-0.30582131685358965
-0.874494544899672
-1.3538719768062866
-1.7466392004272524
-2.5274738689250014
-3.8326695658808267
-5.058640421149004
-5.799191271839475
-5.979461356527047
-5.607171740291447
-5.029098954756999
-4.442298008697643
-3.896452277409018
-3.368062867170215
-2.811139085984588
-1.8896467536430916
-0.7422293430991073
0.35349050125886927
1.3666285191119247
1.7714808880750743
1.3276874952315556
0.7234302281223773
0.10641641870756083
-0.4907911802853437
-1.1165331502250706
-2.223331044480049
-3.9276722362096588
-5.590722514686808
-6.801922636758984
-7.41759365224689
-7.076188296330204
-6.228213931486991
-5.313099870298314
-4.466803997863737
-3.6940260929274435
-2.7826047150377655
-1.3810635538261997
0.32428473334859237
2.0138551918822003
3.677576867322805
4.632303349355306
4.554421301594568
4.340917067215991
4.085114824139772
3.7917143511100937
3.4251316090638593
2.4502632181277177
0.7717708094911115
-0.8093690394445715
-1.8728618295567256
-2.283756771190966
-1.89233234149691
-1.181994354161898
-0.4407721065079728
0.2950789654383154
0.9758754863813229
1.8251926451514455
3.143144884412909
4.704814221408408
6.2530556191348134
7.718043793392844
8.451209277485312
8.123567559319449
7.501853971160448
6.78748760204471
6.050293736171511
5.24327458609903
3.833340962844281
1.758724345769436
-0.29709315632867933
-1.7835660334172576
-2.5583581292439153
-2.504646372167544
-2.058838788433661
-1.4532387273975738
-0.8060120546272984
-0.1977264057373922
0.5582665751125353
1.8332494087129014
3.3526207370107572
4.817608911268787
6.216800183108263
6.919081406881818
6.533028152895399
5.776363775082017
4.965987640192263
4.159639887083237
3.3183794918745706
1.8648050659952697
-0.28500801098649575
-2.3710383764400698
-3.871946288242923
-4.639017318989852
-4.514808880750744
-3.9786984054322114
-3.3036087586785685
-2.604013122758831
-1.9440299076829175
-1.0604715037766077
0.32697032120241093
1.9527580682078278
3.5849240863660636
5.1976195925841155
6.083863584344243
5.82738994430457
5.239246204318303
4.498023956664377
3.7077897306782637
2.877943083848325
1.5143358510719462
-0.6290989547570001
-2.745006485084306
-4.251621271076524
-5.014663920042725
-4.915632867933165
-4.336217288471809
-3.6191653315022507
-2.900770580605783
-2.2334019989318685
-1.3532005798428322
0.0157778286411841
1.6002746623941402
3.167315175097276
4.710185397116044
5.474235141527428
5.0673685816739145
4.254306858930342
3.3190508888380252
2.384466315709163
1.4189974822613869
-0.2024261844815747
-2.571786068513008
-4.85621423666743
-6.5753261615930425
-7.527031357289996
-7.512596322575722
-6.870740825513084
-6.02780193789578
-5.130479896238651
-4.225436789501793
-3.096818493934539
-1.4438391699092088
0.5434958419165331
2.5147173266193636
4.468482490272374
5.663569085221637
5.629999237048905
5.129137102311741
4.529579613946746
3.8185702296482793
3.039749752040894
1.641901274128328
-0.5146257724879835
-2.7023727779049365
-4.308690012970168
-5.176470588235294
-5.138536659800107
-4.524208438239108
-3.6879835202563513
-2.801403830014496
-1.909117265583276
-0.8546883344777598
0.5710231174181735
2.2619363698786907
3.958220798046845
5.571587701228351
6.59681086442359
6.616952773327229
6.0919203479057
5.30101472495613
4.4745250629434645
3.641321431296254
2.3327687495231553
0.4058594644083314
-1.6721141374837871
-3.3563134203097587
-4.422156099794003
-4.730327306019684
-4.411413748378728
-3.8051422903791865
-3.0538490882734415
-2.327397573815518
-1.576775768673228
-0.42868696116578925
1.0007171740291447
2.4757763027389945
3.917936980239566
5.027084763866636
5.3728542000457775
5.089524681467918
4.4651255054551
3.7487449454489963
2.9846952010376135
1.9990844586861982
0.5246967269398031
-1.2733043411917297
-2.9672388799877925
-4.293247882810711
-5.0149996185244525
-5.1207446402685575
-4.835736629282064
-4.384557869840543
-3.8716105897611963
-3.365377279316396
-2.7127794308384834
-1.7835660334172576
-0.6653543907835507
0.4884412909132525
1.6694285496299683
2.3179980163271536
2.23944457160296
1.7969939726863504
1.1302967879758905
0.4293583581292439
-0.07956054016937514
-0.7361867704280155
-1.973571374074922
-3.5137560082398713
-5.030441748683909
-2.9679102769512475
8.88896009765774
8.147737850003814
-5.605157549401083
-9.27501335164416
-10.982711528191043
-10.987411306935224
-10.988754100862135
-10.988754100862135
-10.98942549782559
-10.98942549782559
1.2951247425040056
10.964919508659495
10.974990463111313
10.977004654001679
10.977004654001679
10.977004654001679
10.97566186007477
10.977004654001679
10.97666895551995
10.977004654001679
7.513939116502632
-10.82761882963302
-10.986068513008314
-10.987747005416953
-10.98908979934386
-10.98908979934386
-10.98908979934386
-10.98942549782559
-10.98942549782559
-10.989761196307317
-10.98942549782559
-0.3001144426642252
10.963576714732586
10.97431906614786
10.97566186007477
10.977004654001679
10.977004654001679
10.977004654001679
10.977004654001679
10.978347447928588
10.977004654001679
10.977004654001679
-7.271564812695507
-10.98304722667277
-10.987411306935224
-10.988754100862135
-10.98908979934386
-10.989761196307317
-10.989761196307317
-10.98942549782559
-10.990096894789042
-10.989761196307317
3.3311360341802088
10.970290684367132
10.97566186007477
10.97566186007477
10.977676050965131
10.978347447928588
10.977676050965131
10.978347447928588
10.977004654001679
10.978347447928588
10.97566186007477
10.97566186007477
3.5929808499275198
-10.928664072632944
-10.985732814526589
-10.98808270389868
-10.988754100862135
-10.98942549782559
-10.989761196307317
-10.98908979934386
-10.98942549782559
-5.432272831311513
10.91389333943694
10.97431906614786
10.97566186007477
10.97566186007477
10.977676050965131
10.978347447928588
10.977004654001679
10.977004654001679
10.977004654001679
10.977004654001679
10.97566186007477
-7.620019836728465
-10.983382925154496
-10.987747005416953
-10.988754100862135
-10.98942549782559
-10.98908979934386
-10.98908979934386
-10.989761196307317
-10.98908979934386
-2.1904325932707716
10.96156252384222
10.97297627222095
10.97566186007477
10.97566186007477
10.978347447928588
10.978347447928588
10.978347447928588
10.977004654001679
10.977004654001679
10.977004654001679
8.290074006256198
-10.864209964141297
-10.985732814526589
-10.987747005416953
-10.988754100862135
-10.98908979934386
-10.98908979934386
-10.98942549782559
-10.990096894789042
-10.98908979934386
0.25345235370412755
10.967605096513314
10.97566186007477
10.97566186007477
10.97566186007477
10.978347447928588
10.978347447928588
10.978347447928588
10.978347447928588
10.977004654001679
10.977004654001679
-0.48374151216906996
-10.977676050965131
-10.987075608453498
-10.988418402380407
-10.98942549782559
-10.98942549782559
-10.98942549782559
-10.98942549782559
-10.98942549782559
-10.98908979934386
1.3384298466468298
10.968947890440223
10.97566186007477
10.97566186007477
10.97566186007477
10.978347447928588
10.978347447928588
10.977676050965131
10.977004654001679
10.974990463111313
10.97566186007477
-5.205004959182117
-10.982711528191043
-10.987411306935224
-10.988418402380407
-10.98908979934386
-10.98942549782559
-10.98908979934386
-10.98942549782559
-10.989761196307317
-10.98942549782559
4.336888685435264
10.970290684367132
10.974990463111313
10.97566186007477
10.97566186007477
10.977004654001679
10.977676050965131
10.977676050965131
10.977004654001679
10.97566186007477
10.97566186007477
-5.092210269321736
-10.982040131227588
-10.987075608453498
-10.988418402380407
-10.988754100862135
-10.98942549782559
-10.98908979934386
-10.98942549782559
-10.989761196307317
-10.98942549782559
3.6433356221866178
10.969954985885403
10.97431906614786
10.97566186007477
10.97566186007477
10.977004654001679
10.977676050965131
10.97801174944686
10.977004654001679
10.974990463111313
10.97566186007477
-4.566506446936751
-10.98170443274586
-10.987075608453498
-10.98908979934386
-10.98908979934386
-10.98908979934386
-10.98908979934386
-10.989761196307317
-10.989761196307317
-10.98908979934386
2.736278324559396
10.968947890440223
10.97431906614786
10.97566186007477
10.974990463111313
10.97566186007477
10.977004654001679
10.977004654001679
10.977004654001679
10.974990463111313
10.97566186007477
-4.660166323338673
-10.98170443274586
-10.987411306935224
-10.98908979934386
-10.98908979934386
-10.98908979934386
-10.98942549782559
-10.989761196307317
-10.990096894789042
-10.98942549782559
0.07183947508964675
10.966262302586404
10.97297627222095
10.97431906614786
10.974990463111313
10.97566186007477
10.977004654001679
10.977004654001679
10.977004654001679
10.974990463111313
10.974990463111313
-4.042145418478675
-10.98170443274586
-10.987075608453498
-10.988754100862135
-10.98942549782559
-10.98942549782559
-10.98942549782559
-10.989761196307317
-10.989761196307317
-10.98942549782559
-3.153551537346456
10.962233920805676
10.97431906614786
10.97566186007477
10.97566186007477
10.977004654001679
10.97566186007477
10.977004654001679
10.977004654001679
10.97566186007477
10.97566186007477
-2.0816662851911194
-10.979690241855495
-10.987075608453498
-10.988754100862135
-10.98908979934386
-10.98942549782559
-10.989761196307317
-10.98942549782559
-10.989761196307317
-10.98942549782559
-2.3223620965896083
10.963576714732586
10.97297627222095
10.974990463111313
10.97566186007477
10.97566186007477
10.97566186007477
10.977004654001679
10.977004654001679
10.97566186007477
10.974990463111313
3.6372930495155256
-10.966598001068132
-10.98673990997177
-10.988418402380407
-10.98908979934386
-10.98942549782559
-10.98908979934386
-10.98908979934386
-10.989761196307317
-10.98942549782559
-3.1324025329976344
10.962233920805676
10.97297627222095
10.97566186007477
10.97566186007477
10.977004654001679
10.97566186007477
10.977004654001679
10.977676050965131
10.974990463111313
10.974990463111313
-9.033646143282215
-10.984390020599678
-10.987747005416953
-10.988754100862135
-10.98942549782559
-10.98942549782559
-10.989761196307317
-10.989761196307317
-10.989761196307317
-10.989761196307317
-10.98942549782559
-8.428717479209583
-2.009155413138018
2.3059128709849697
6.995620660715647
10.968947890440223
10.97297627222095
10.97431906614786
10.97566186007477
10.974990463111313
10.974990463111313
10.97566186007477
8.66337071793698
7.08693064774548
5.611200122072176
3.1203173876554513
0.055390249485008015
-2.2287022201876856
-3.6037232013427936
-3.820920119020371
-0.5723659113450827
3.493614099336232
5.931456473640039
7.62941939421683
8.786907759212633
10.309636072327763
10.97297627222095
10.97431906614786
10.974990463111313
10.974990463111313
10.97566186007477
10.085389486533913
7.51796749828336
5.764278629739834
4.428198672465094
3.2582894636453803
1.3840848401617456
-1.0457007705806056
-2.9994659342336156
-4.464454108491645
-5.20836194399939
-3.720210574502174
-1.758724345769436
-0.5136186770428016
0.3085069047074082
0.7489433127336537
1.6600289921416036
4.084443427176318
6.270511940184633
7.137956816968032
6.788830395971617
5.49639124132143
3.6879835202563513
2.2911421377889676
1.2867322804608223
0.5716945143816281
-0.13461509117265583
-1.4988937209124895
-3.3694056610971237
-5.0160067139696345
-6.337315938048371
-7.1164721141374825
-6.094941634241244
-4.64304570077058
-3.5755245288776982
-2.7826047150377655
-2.205203326466773
-1.0987411306935224
1.2457770656900893
3.658777752346074
5.106309605554284
5.6098573281452655
5.181506065461204
4.1650110627908745
3.3902189669642175
2.800732433051041
2.34351110093843
1.8117647058823527
0.622720683604181
-1.0497291523613335
-2.7013656824597545
-4.237186236362249
-5.420523384451056
-5.025070572976272
-4.017975127794308
-3.1961852445258256
-2.36231021591516
-1.665735866330968
-0.5314106965743495
1.6184023804074157
4.086457618066682
5.8931868467231245
6.823743038071259
6.814343480582894
6.105348287174792
5.383596551461052
4.705821316853589
4.076386663614862
3.3606775005722125
2.04272526131075
0.23868162050812544
-1.509971770809491
-3.1807431143663694
-4.533943694209201
-4.445654993514916
-3.727260242618448
-3.0337071793698023
-2.382452124818799
-1.7714808880750743
-0.7509575036240176
1.3317158770122834
3.655756466010529
5.392324711985961
6.402105745021744
6.46655985351339
5.870359349965667
5.271473258564125
4.639688715953307
4.046173800259403
3.3539635309376665
2.087037460898756
0.3259632257572289
-1.4424963759822993
-3.1371023117418173
-4.559792477302204
-4.588326848249027
-3.9884336614023033
-3.333821622034027
-2.67182421606775
-2.057495994506752
-1.0299229419394216
1.0289158464942398
3.3526207370107572
5.138536659800107
6.189944304570076
6.388677805752651
5.910643167772946
5.258045319295032
4.514137483787289
3.8219272144655525
3.0343785763332565
1.724483100633249
-0.04129091325246051
-1.8614480811779965
-3.5923094529640642
-5.0149996185244525
-5.166735332265201
-4.561806668192569
-3.8272983901731896
-3.0659342336156254
-2.377752346074616
-1.3511863889524682
0.6858319981689174
3.013565270466163
4.841779201953154
5.879758907454032
6.093263141832608
5.655512321660182
4.970687418936446
4.2509498741130685
3.560753795681696
2.781261921110857
1.512993057145037
-0.17422751201647974
-1.8829327840085452
-3.5523613336385136
-4.908247501335165
-5.047898069733731
-4.537972075989928
-3.8800030518043793
-3.1814145113298236
-2.508674753948272
-1.457938506141756
0.5199969481956207
2.7094224460212097
4.428198672465094
5.519218738078889
5.773006790264744
5.358754863813228
4.73838406958114
4.014282444495308
3.301594567788205
2.5543297474631874
1.4243686579690242
-0.22659647516594186
-1.92993057145037
-3.535912108033876
-4.859571221484703
-5.029434653238727
-4.569863431754024
-3.9481498435950253
-3.249225604638742
-2.593270771343557
-1.5646906233310445
0.3031357289997711
2.410650797283894
4.09921416037232
5.1586785687037455
5.4272373540856025
5.053940642404822
4.48392462043183
3.7829861905851834
3.098832684824903
2.3837949187457084
1.2155642023346303
-0.36826123445487147
-1.9829709315632866
-3.5305409323262373
-4.768932631418326
-4.944502937361715
-4.5228656443121995
-3.9286793316548407
-3.276752880140383
-2.6187838559548333
-1.6237735561150528
0.15643549248493172
2.1521629663538566
3.7568017090104515
4.717906462195773
4.958602273594262
4.667215991454947
4.041474021515221
3.3996185244525825
2.788647287708858
2.1145647364003968
1.047043564507515
-0.43271534294651715
-1.9386587319752806
-3.3861905851834897
-4.520180056458381
-4.681315327687495
-4.310704203860532
-3.7500877393759056
-3.129045548180361
-2.5187457084000915
-1.6278019378957806
-0.04129091325246051
1.7788662546730756
3.2317692835889216
4.134798199435416
4.369115739681086
4.09921416037232
3.6184939345387956
3.0464637216754404
2.498603799496452
1.9124742504005492
0.9470054169527733
-0.37027542534523533
-1.698970016021973
-2.9450827801937893
-3.9535210193026624
-4.111970702677959
-3.7923857480735483
-3.3073014419775695
-2.734599832150759
-2.1655909056229494
-1.347829404135195
0.09365987640192262
1.7627527275501638
3.1149462119478137
3.955535210193027
4.216037232013427
4.009918364232853
3.6033875028610662
3.105546654459449
2.607370107576104
2.055481803616388
1.1517814908064392
-0.03121995880064088
-1.2894178683146411
-2.5127031357289997
-3.4660868238345923
-3.6393072404058895
-3.3720912489509423
-2.9544823376821543
-2.448920424200809
-1.945708400091554
-1.2048218509193558
0.13327229724574652
1.664728770885786
2.906813153276875
3.6708628976882585
3.8763103685053784
3.6507209887846193
3.231097886625467
2.742992294193942
2.2240024414435036
1.64794384679942
0.8127260242618447
-0.2823224231326772
-1.4740520332646676
-2.6194552529182875
-3.4983138780804146
-3.6453498130769812
-3.397268635080491
-3.0011444266422522
-2.4831616693369956
-1.9890135042343786
-1.2679331654840924
0.006378271152819104
1.4747234302281225
2.6543678950179292
3.361684596017395
3.5070420386053254
3.269703212024109
2.910170138094148
2.4610055695429924
1.9937132829785613
1.4767376211184862
0.6979171435111009
-0.35886167696650645
-1.4713664454108493
-2.5613794155794616
-3.395925841153582
-3.4701152056153197
-3.190478370336461
-2.814831769283589
-2.370366979476615
-1.928587777523461
-1.2263065537499045
-0.035248340581368734
1.2860608834973677
2.3817807278553444
3.059555962462806
3.2169985503929195
3.0095368886854352
2.667795834287022
2.2434729533836877
1.8030365453574426
1.3357442587930113
0.5925078202487221
-0.40451667048142215
-1.4371252002746624
-2.443213550011444
-3.18812848096437
-3.280109864957656
-3.029678797589075
-2.677195391775387
-2.2673075455863274
-1.8272068360418097
-1.151445792324712
-0.011749446860456245
1.241412985427634
2.2877851529716944
2.9457541771572444
3.0894331273365374
2.912184328984512
2.5872281986724652
2.1857328145265886
1.7882658121614403
1.3290302891584649
0.6321202410925459
-0.30045014114595253
-1.2827038986800943
-2.265629053177691
-2.9766384374761574
-3.0491493095292586
-2.8396734569314104
-2.5080033569848172
-2.128664072632944
-1.713740749217975
-1.0806134126802471
-0.024841687647821773
1.1699092088197145
2.138735027084764
2.7409781033035783
2.883985656519417
2.7141222247653927
2.4177004654001677
2.055481803616388
1.668757152666514
1.2169069962615398
0.5508812085145341
-0.3172350652323186
-1.2484626535439076
-2.1531700617990386
-2.8262455176623176
-2.9296406500343326
-2.7409781033035783
-2.429449912260624
-2.0306401159685668
-1.6304875257495994
-1.0759136339360649
-0.09835965514610515
1.0091096360723277
1.9332875562676433
2.5053177691309982
2.6607461661707483
2.493232623788815
2.1978179598687726
1.8554055085069046
1.5113145647364004
1.1121690699626154
0.4867627985046159
-0.29340047302967875
-1.1229114213778897
-1.978271152819104
-2.6187838559548333
-2.73191424429694
-2.5516441596093693
-2.272343022812237
-1.9460440985732812
-1.5714045929655909
-1.0248874647135118
-0.11447318226901655
0.8909437705043105
1.7345540550850689
2.326390478370336
2.4915541313801786
2.359624628061341
2.1132219424734875
1.820492866407263
1.506950484473945
1.11284046692607
0.5528953994048981
-0.17758449683375294
-0.9567406729228656
-1.7459678034637978
-2.361974517433432
-2.5153887235828183
-2.387823300526436
-2.1306782635233077
-1.850705729762722
-1.5499198901350422
-1.043015182726787
-0.22592507820248725
0.7073167009994659
1.5260852979324024
2.0903944457160293
2.2931563286793315
2.234073395895323
2.0712596322575725
1.8258640421149006
1.5458915083543145
1.2169069962615398
0.7422293430991073
0.11111619745174332
-0.583108262760357
-1.2880750743877316
-1.8815899900816357
-2.0749523155565726
-1.9648432135500113
-1.7600671396963452
-1.5096360723277638
-1.2316777294575416
-0.7791561760891126
-0.0473334859235523
0.7731136034180208
1.5385061417563133
2.1041580834668494
2.3505607690547032
2.328068970778973
2.1897611963073165
1.9749141680018307
1.7358968490119782
1.4727092393377583
1.0054169527733272
0.3877317463950561
-0.26150911726558324
-0.9567406729228656
-1.5462272068360416
-1.7933012893873501
-1.7506675822079807
-1.5942320897230489
-1.3706569008926528
-1.0947127489127948
-0.677103837644007
-0.0030212863355458916
0.7999694819562065
1.569390402075227
2.14679179064622
2.4019226367589837
2.40863660639353
2.238101777676051
1.9775997558556493
1.7177691309987027
1.390798809796292
0.8966506446936751
0.2316319523918517
-0.5011978332188906
-1.2722972457465476
-1.9473868925001907
-2.2461585412375067
-2.2364232852674144
-2.078309300373846
-1.8527199206530862
-1.5808041504539558
-1.1161974517433433
-0.38504615854123747
0.5220111390859845
1.3397726405737391
1.945372701609827
2.255558098725871
2.2589150835431444
2.0702525368123905
1.7956511787594416
1.5116502632181277
1.1611810482948042
0.6160067139696346
-0.08627450980392155
-0.874494544899672
-1.7083695735103381
-2.4287785152971693
-2.741649500267033
-2.7372854200045773
-2.557015335317006
-2.271000228885329
-1.9635004196231018
-1.486808575570306
-0.6455481803616389
0.360540169375143
1.2847180895704582
1.9977416647592892
2.362981612878614
2.3837949187457084
2.2082246128023186
1.9494010833905548
1.64794384679942
1.281361104753185
0.7234302281223773
-0.04061951628900587
-0.9000076295109483
-1.8040436408026246
-2.5603723201342787
-2.9182269016556033
-2.9135271229114212
-2.6966659037155716
-2.3898374914168
-2.0309758144502936
-1.4700236514839398
-0.5042191195544365
0.6881818875410086
1.7949797817959867
2.681223773556115
3.1700007629510947
3.2700389105058365
3.1324025329976344
2.869214923323415
2.544930189974823
2.10785076676585
1.428397039749752
0.47769893949797815
-0.5965362020294499
-1.6976272220950634
-2.68055237659266
-3.1559014267185472
-3.1961852445258256
-2.96253910124361
-2.623483634699016
-2.232059205004959
-1.5804684519722285
-0.47299916075379567
0.8758373388265811
2.1333638513771263
3.0854047455558096
3.560082398718242
3.5902952620737008
3.3633630884260315
2.9591821164263368
2.5053177691309982
1.9990844586861982
1.167223620965896
0.019470511940184634
-1.2605477988860914
-2.5677576867322798
-3.647364003967346
-4.09048599984741
-4.028717479209583
-3.7024185549706266
-3.241840238040741
-2.731578545815213
-1.876890211337453
-0.41660181582360567
1.2874036774242772
2.794018463416495
3.8387121385519185
4.264042114900435
4.221408407721064
3.867582207980468
3.3398641947051195
2.759105821316853
2.0971084153505757
1.0457007705806056
-0.4072022583352407
-1.986663614862287
-3.6017090104524296
-4.85621423666743
-5.252674143587396
-5.0727397573815525
-4.620889600976577
-4.062287327382315
-3.4083466849774933
-2.27838559548333
-0.40854505226215004
1.7506675822079807
3.622522316319524
4.867292286564431
5.276844434271763
5.099595635919737
4.581277180132753
3.8877241168841072
3.1975280384527354
2.3307545586327914
0.9134355687800411
-0.9335774776836805
-2.84974441138323
-4.809887846189058
-6.251377126726176
-6.5655909056229484
-6.284611276417181
-5.6696116578927285
-4.881391622796978
-4.0381170366979475
-2.5993133440146488
-0.24505989166094452
2.3817807278553444
4.554421301594568
5.964354924849316
6.400427252613107
6.149660486762798
5.495719844357977
4.6423743038071255
3.8037994964522763
2.8155031662470433
1.141039139391165
-1.0483863584344244
-3.330464637216754
-5.620599679560541
-7.187640192263677
-7.409536888685435
-6.961379415579461
-6.194644083314258
-5.276508735790036
-4.25967803463798
-2.4791332875562677
0.4213015945677882
3.513084611276417
6.003967345693141
7.552208743419545
7.880521858548867
7.4387426565957115
6.610238803692683
5.621942473487449
4.583962767986573
3.2868238345922025
1.1860227359426259
-1.5002365148393986
-4.210330357824064
-6.881818875410087
-8.668070496681162
-8.793286030365454
-8.16821545738918
-7.192339971007859
-6.0993057145037
-4.880720225833524
-2.71949340047303
0.7623712520027466
4.397314412146181
7.233966582742046
8.949385824368658
9.224658579385062
8.641886015106431
7.672388799877927
6.506843671320667
5.318471046005951
3.7608300907911807
1.3075455863279164
-1.7896086060883498
-4.947188525215533
-8.09805447470817
-10.076325627527275
-10.136415655756466
-9.353566796368352
-8.211520561532005
-6.929152361333639
-5.484306095979248
-2.8598153658350496
1.235034714274815
5.375539787899595
8.629800869764246
10.53791103990234
10.763500419623103
10.008850232700084
8.824505989166093
7.434714274814984
6.038208590829327
4.159639887083237
1.1893797207598993
-2.4549629968719002
-6.05801480125124
-9.638910505836575
-10.983382925154496
-10.98808270389868
-10.862195773250933
-9.503959716182191
-8.036957351033799
-6.3517509727626456
-3.278095674067292
1.5479056992446785
6.392706187533379
10.096131837949187
10.97297627222095
10.97431906614786
10.97566186007477
10.064576180666819
8.42905317769131
6.80494392309453
4.607461661707484
1.2001220721751735
-3.00886549172198
-7.147356374456398
-10.94142061493858
-10.986068513008314
-10.98808270389868
-10.988754100862135
-10.8789806973373
-9.2411078049897
-7.284321355001144
-3.688654917219806
1.9359731441214616
7.5488517586022725
10.964583810177768
10.97431906614786
10.97431906614786
10.974990463111313
10.97566186007477
9.798031586175325
7.871122301060501
5.409781033035782
1.400198367284657
-3.4741435873960476
-8.308201724269473
-10.980361638818952
-10.987075608453498
-10.988418402380407
-10.988754100862135
-10.98908979934386
-10.542610818646525
-8.281010147249562
-4.073365377279316
2.440863660639353
8.837933928435186
10.970290684367132
10.97431906614786
10.97566186007477
10.974990463111313
10.974990463111313
10.97566186007477
9.274341954680702
6.25976958876936
1.6378728923476005
-4.0475165941863125
-9.648981460288395
-10.984054322117952
-10.987747005416953
-10.988418402380407
-10.98908979934386
-10.98908979934386
-10.98908979934386
-9.55431448844129
-4.560463874265659
3.0907759212634467
10.268009460593575
10.971633478294041
10.97431906614786
10.97566186007477
10.97431906614786
10.97566186007477
10.97566186007477
10.97566186007477
7.493797207598993
1.9745784695201036
-4.535286488136111
-10.815869382772565
-10.986068513008314
-10.988418402380407
-10.988754100862135
-10.98908979934386
-10.98942549782559
-10.98942549782559
-10.876630807965208
-5.238239108873121
3.6869764248111694
10.943434805828947
10.97297627222095
10.97431906614786
10.97566186007477
10.974990463111313
10.97431906614786
10.974990463111313
10.97566186007477
9.698664835584038
2.615091172655833
-5.059983215075913
-10.960891126878767
-10.986404211490042
-10.988418402380407
-10.988754100862135
-10.98908979934386
-10.98908979934386
-10.98908979934386
-10.98942549782559
-6.163759822995346
4.253635461966888
10.964919508659495
10.97297627222095
10.974990463111313
10.97566186007477
10.975326161593042
10.974990463111313
10.97566186007477
10.97566186007477
10.97566186007477
4.55408560311284
-5.321828030823223
-10.97431906614786
-10.987075608453498
-10.988418402380407
-10.98942549782559
-10.98908979934386
-10.98908979934386
-10.98942549782559
-10.98942549782559
-7.307148851758601
4.821637293049515
10.967605096513314
10.97431906614786
10.97431906614786
10.97566186007477
10.97566186007477
10.97566186007477
10.97566186007477
10.97566186007477
10.97566186007477
7.033218890669108
-5.4148165102616925
-10.979690241855495
-10.987075608453498
-10.988418402380407
-10.98908979934386
-10.98908979934386
-10.98942549782559
-10.988754100862135
-10.98942549782559
-8.613351644159607
5.937499046311132
10.970290684367132
10.974990463111313
10.97566186007477
10.97566186007477
10.97566186007477
10.97566186007477
10.97566186007477
10.97566186007477
10.97566186007477
8.600259403372243
-6.072114137483786
-10.982040131227588
-10.987747005416953
-10.988418402380407
-10.98908979934386
-10.98908979934386
-10.98908979934386
-10.98942549782559
-10.98908979934386
-9.130327306019684
7.205096513313496
10.972304875257496
10.97431906614786
10.97566186007477
10.97566186007477
10.97566186007477
10.97566186007477
10.974990463111313
10.97566186007477
10.97566186007477
8.486121919584955
-8.389440756847485
-10.983718623636225
-10.987747005416953
-10.988754100862135
-10.98908979934386
-10.98942549782559
-10.98908979934386
-10.98908979934386
-10.98942549782559
-9.516044861524376
8.406561379415578
10.971633478294041
10.97566186007477
10.97431906614786
10.97566186007477
10.97566186007477
10.97566186007477
10.97566186007477
10.97566186007477
10.97566186007477
7.7818265049210344
-10.567788204776072
-10.984725719081407
-10.987747005416953
-10.988418402380407
-10.98908979934386
-10.988754100862135
-10.989761196307317
-10.98942549782559
-10.98908979934386
-9.450919356069274
9.56572823682002
10.97297627222095
10.97566186007477
10.97566186007477
10.97566186007477
10.977004654001679
10.97566186007477
10.97566186007477
10.97566186007477
10.97566186007477
5.696803234912641
-10.933363851377127
-10.986068513008314
-10.98808270389868
-10.988754100862135
-10.98908979934386
-10.98908979934386
-10.989761196307317
-10.989761196307317
-10.98908979934386
-8.573739223315787
10.721873807888914
10.97297627222095
10.97566186007477
10.97566186007477
10.97566186007477
10.977004654001679
10.977004654001679
10.97566186007477
10.97566186007477
10.97566186007477
3.2472114137483783
-10.967269398031585
-10.986404211490042
-10.988418402380407
-10.988754100862135
-10.98942549782559
-10.98942549782559
-10.98942549782559
-10.98942549782559
-10.98908979934386
-10.989761196307317
7.01911955443656
10.97297627222095
10.97566186007477
10.974990463111313
10.97566186007477
10.97566186007477
10.977004654001679
10.97566186007477
10.97566186007477
10.97566186007477
4.371129930571449
-10.960891126878767
-10.986068513008314
-10.988418402380407
-10.98908979934386
-10.98942549782559
-10.98942549782559
-10.989761196307317
-10.98942549782559
-10.98942549782559
-10.334477759975586
10.472114137483787
10.97297627222095
10.97566186007477
10.97566186007477
10.97566186007477
10.977004654001679
10.977004654001679
10.97566186007477
10.97566186007477
10.97566186007477
3.7380025940337225
-10.964248111696039
-10.98673990997177
-10.98808270389868
-10.98908979934386
-10.98942549782559
-10.98942549782559
-10.989761196307317
-10.989761196307317
-10.98942549782559
-6.82240024414435
10.93269245441367
10.97431906614786
10.97566186007477
10.97566186007477
10.97566186007477
10.97566186007477
10.977004654001679
10.97566186007477
10.97566186007477
10.97566186007477
2.549629968719005
-10.969954985885403
-10.98673990997177
-10.98808270389868
-10.98942549782559
-10.98908979934386
-10.989761196307317
-10.989761196307317
-10.989761196307317
-10.98908979934386
-2.009826810101472
10.964919508659495
10.97431906614786
10.97566186007477
10.97566186007477
10.97566186007477
10.97566186007477
10.977004654001679
10.97566186007477
10.97566186007477
10.97566186007477
1.7036697947661554
-10.972640573739222
-10.98673990997177
-10.98808270389868
-10.988754100862135
-10.98942549782559
-10.98908979934386
-10.98942549782559
-10.989761196307317
-10.98942549782559
-1.9836423285267417
10.964248111696039
10.97431906614786
10.97566186007477
10.97566186007477
10.97566186007477
10.97566186007477
10.977004654001679
10.97566186007477
10.97566186007477
10.97566186007477
0.34073395895323105
-10.975997558556495
-10.987075608453498
-10.988418402380407
-10.98908979934386
-10.98942549782559
-10.98942549782559
-10.989761196307317
-10.989761196307317
-10.98942549782559
-1.5324635690852215
10.966262302586404
10.97431906614786
10.97566186007477
10.97566186007477
10.97566186007477
10.97566186007477
10.977004654001679
10.97566186007477
10.97566186007477
10.974990463111313
-0.3105210955977722
-10.97666895551995
-10.98673990997177
-10.988754100862135
-10.98942549782559
-10.98908979934386
-10.98942549782559
-10.98942549782559
-10.98942549782559
-10.98942549782559
-1.0792706187533379
10.966262302586404
10.97431906614786
10.97566186007477
10.97566186007477
10.97566186007477
10.97566186007477
10.97566186007477
10.97566186007477
10.97566186007477
10.97566186007477
-0.023163195239185166
-10.97666895551995
-10.987075608453498
-10.98808270389868
-10.98908979934386
-10.98942549782559
-10.98942549782559
-10.989761196307317
-10.990096894789042
-10.989761196307317
-2.734264133669032
10.962233920805676
10.97297627222095
10.974990463111313
10.97566186007477
10.97566186007477
10.97566186007477
10.97566186007477
10.97566186007477
10.97566186007477
10.97566186007477
2.2199740596627757
-10.970962081330585
-10.987075608453498
-10.988418402380407
-10.98908979934386
-10.98942549782559
-10.98908979934386
-10.989761196307317
-10.989761196307317
-10.989761196307317
-2.9427328908216985
10.962233920805676
10.97297627222095
10.97566186007477
10.97566186007477
10.97566186007477
10.97566186007477
10.97566186007477
10.97566186007477
10.97566186007477
10.97566186007477
3.0182650492103456
-10.967605096513314
-10.986404211490042
-10.988418402380407
-10.988754100862135
-10.98908979934386
-10.98942549782559
-10.98942549782559
-10.989761196307317
-10.98942549782559
-5.153978789959563
10.95283436331731
10.97297627222095
10.974990463111313
10.97566186007477
10.97566186007477
10.97566186007477
10.97566186007477
10.977004654001679
10.975326161593042
10.97566186007477
7.781155107957579
-10.893751430533301
-10.986068513008314
-10.987747005416953
-10.988754100862135
-10.98908979934386
-10.98942549782559
-10.989761196307317
-10.98942549782559
-10.98942549782559
-10.990096894789042
8.095368886854352
10.971633478294041
10.97431906614786
10.97566186007477
10.97566186007477
10.97566186007477
10.97566186007477
10.97566186007477
10.97566186007477
10.97566186007477
10.06793316548409
-10.65439841306172
-10.985061417563134
-10.988418402380407
-10.98908979934386
-10.98908979934386
-10.98942549782559
-10.98942549782559
-10.98942549782559
-10.989761196307317
-10.98942549782559
-7.084916456855115
10.939406424048217
10.97297627222095
10.97431906614786
10.97566186007477
10.97566186007477
10.97566186007477
10.97566186007477
10.97566186007477
10.97566186007477
10.97566186007477
-8.044678416113527
-10.984054322117952
-10.987747005416953
-10.988754100862135
-10.98942549782559
-10.98942549782559
-10.989761196307317
-10.989761196307317
-10.989761196307317
-10.990096894789042
-10.98942549782559
9.518730449378195
10.971633478294041
10.97431906614786
10.97566186007477
10.97566186007477
10.97566186007477
10.97566186007477
10.97566186007477
10.97566186007477
10.97566186007477
-5.589044022278172
-10.982375829709316
-10.987411306935224
-10.988754100862135
-10.98908979934386
-10.98908979934386
-10.989761196307317
-10.990096894789042
-10.98942549782559
-10.990096894789042
-10.989761196307317
8.064484626535439
10.971633478294041
10.97431906614786
10.97566186007477
10.97566186007477
10.97566186007477
10.97566186007477
10.97566186007477
10.97566186007477
10.97566186007477
-4.604776073853666
-10.981368734264134
-10.987411306935224
-10.988418402380407
-10.98908979934386
-10.98942549782559
-10.98942549782559
-10.989761196307317
-10.98942549782559
-10.990096894789042
-10.98942549782559
8.596231021591516
10.971633478294041
10.97431906614786
10.97566186007477
10.97566186007477
10.97566186007477
10.97566186007477
10.97566186007477
10.97566186007477
10.97566186007477
-5.147600518806745
-10.982040131227588
-10.987411306935224
-10.988418402380407
-10.98942549782559
-10.989761196307317
-10.98942549782559
-10.989761196307317
-10.989761196307317
-10.990096894789042
-10.989761196307317
8.442481116960403
10.971633478294041
10.97431906614786
10.975326161593042
10.97566186007477
10.97566186007477
10.97566186007477
10.97566186007477
10.97566186007477
10.97566186007477
-4.4577401388570985
-10.981368734264134
-10.987075608453498
-10.988754100862135
-10.98942549782559
-10.98908979934386
-10.98942549782559
-10.989761196307317
-10.990096894789042
-10.98908979934386
7.6045777065690086
10.971633478294041
10.97431906614786
10.974990463111313
10.97566186007477
10.977004654001679
10.97566186007477
10.97566186007477
10.97566186007477
10.97566186007477
-2.489875638971542
-10.979354543373768
-10.987075608453498
-10.988418402380407
-10.98908979934386
-10.98908979934386
-10.98942549782559
-10.989761196307317
-10.989761196307317
-10.989761196307317
-9.416678110933088
10.830640115968565
10.97297627222095
10.97566186007477
10.975326161593042
10.97566186007477
10.97566186007477
10.97566186007477
10.97566186007477
10.97431906614786
10.97566186007477
6.849256122682535
-10.917250324254214
-10.986068513008314
-10.98808270389868
-10.98908979934386
-10.98908979934386
-10.98908979934386
-10.990096894789042
-10.98942549782559
-10.989761196307317
-4.367772945754176
10.958205539024949
10.97297627222095
10.97566186007477
10.974990463111313
10.97566186007477
10.97566186007477
10.97566186007477
10.97566186007477
10.97431906614786
10.974990463111313
5.738765545128557
-10.9404135194934
-10.986068513008314
-10.98808270389868
-10.98908979934386
-10.988754100862135
-10.98942549782559
-10.98942549782559
-10.989761196307317
-10.98942549782559
-5.476920729381246
10.951491569390402
10.97297627222095
10.97566186007477
10.97566186007477
10.97566186007477
10.97566186007477
10.97566186007477
10.97566186007477
10.97566186007477
10.97566186007477
6.602182040131227
-10.916243228809034
-10.986404211490042
-10.98808270389868
-10.98908979934386
-10.98908979934386
-10.98942549782559
-10.98942549782559
-10.98942549782559
-10.98942549782559
-6.0140383001449615
10.939406424048217
10.97297627222095
10.974990463111313
10.97566186007477
10.97566186007477
10.97566186007477
10.97566186007477
10.97566186007477
10.97297627222095
10.97566186007477
7.42397192339971
-10.858503089951933
-10.985732814526589
-10.98808270389868
-10.988754100862135
-10.98942549782559
-10.98908979934386
-10.98942549782559
-10.98942549782559
-10.98942549782559
-6.547127489127947
10.909864957656215
10.97297627222095
10.97431906614786
10.97566186007477
10.97566186007477
10.97566186007477
10.97566186007477
10.97566186007477
10.974990463111313
10.97566186007477
8.072541390096895
-10.702403295948729
-10.985397116044862
-10.987747005416953
-10.98908979934386
-10.98942549782559
-10.98942549782559
-10.98942549782559
-10.989761196307317
-10.989761196307317
-6.666636148622873
10.846753643091477
10.97297627222095
10.97431906614786
10.97431906614786
10.975326161593042
10.97566186007477
10.974990463111313
10.97566186007477
10.97566186007477
10.974990463111313
9.043381399252308
-9.655695429922941
-10.984725719081407
-10.987747005416953
-10.988418402380407
-10.98942549782559
-10.98942549782559
-10.98908979934386
-10.98942549782559
-10.98908979934386
-6.727061875333792
10.54328221560998
10.972304875257496
10.97566186007477
10.97566186007477
10.97566186007477
10.97566186007477
10.974990463111313
10.97566186007477
10.97566186007477
10.97566186007477
9.122606240939955
-7.843259327077135
-10.983382925154496
-10.987747005416953
-10.988754100862135
-10.988754100862135
-10.98942549782559
-10.98942549782559
-10.98908979934386
-10.98908979934386
-6.739147020675975
9.234058136873426
10.971633478294041
10.97431906614786
10.97566186007477
10.97566186007477
10.97566186007477
10.97566186007477
10.97566186007477
10.97566186007477
10.97566186007477
9.332082093537805
-5.160357061112382
-10.980697337300677
-10.987411306935224
-10.988754100862135
-10.98908979934386
-10.98908979934386
-10.98942549782559
-10.98942549782559
-10.98942549782559
-6.266483558403906
7.663660639353018
10.970290684367132
10.97297627222095
10.97566186007477
10.97566186007477
10.97431906614786
10.97566186007477
10.97566186007477
10.97566186007477
10.97566186007477
9.028610666056307
-3.4563515678644996
-10.967940794995041
-10.987075608453498
-10.988418402380407
-10.988418402380407
-10.98942549782559
-10.98908979934386
-10.988754100862135
-10.98908979934386
-5.392660410467689
6.361821927214465
10.970290684367132
10.97297627222095
10.97431906614786
10.97431906614786
10.974990463111313
10.974990463111313
10.97566186007477
10.97566186007477
10.97566186007477
6.97279316395819
-2.877943083848325
-10.856153200579842
-10.986068513008314
-10.987747005416953
-10.98908979934386
-10.98942549782559
-10.98908979934386
-10.98908979934386
-10.916914625772488
-3.4895857175555047
6.425604638742657
10.970290684367132
10.97297627222095
10.974990463111313
10.97566186007477
10.97431906614786
10.97431906614786
10.97431906614786
10.97566186007477
10.97566186007477
5.629999237048905
-2.1958037689784082
-9.558007171740291
-10.984390020599678
-10.987411306935224
-10.98808270389868
-10.988754100862135
-10.98908979934386
-10.98942549782559
-8.882246128023194
-2.4375066758220796
6.038208590829327
10.967605096513314
10.97297627222095
10.97431906614786
10.97566186007477
10.97566186007477
10.974990463111313
10.97566186007477
10.97566186007477
10.891065842679483
4.449683375295643
-2.0796520943007555
-8.60563057907988
-10.982711528191043
-10.987411306935224
-10.988418402380407
-10.988418402380407
-10.988754100862135
-10.988754100862135
-7.63814755474174
-1.928587777523461
5.565545128557259
10.963576714732586
10.97297627222095
10.97431906614786
10.97566186007477
10.97566186007477
10.97566186007477
10.97566186007477
10.97566186007477
8.950728618295566
3.745387960631723
-2.056153200579843
-7.941954680704965
-10.980361638818952
-10.98673990997177
-10.988418402380407
-10.98908979934386
-10.988754100862135
-9.95178149080644
-6.80863660639353
-1.6264591439688716
5.143907835507743
10.93269245441367
10.97297627222095
10.97297627222095
10.974990463111313
10.97566186007477
10.97566186007477
10.974990463111313
10.97566186007477
7.7650415808346684
3.1186388952468147
-2.2404516670481422
-7.588464179446097
-10.97666895551995
-10.98673990997177
-10.98808270389868
-10.988418402380407
-10.988754100862135
-9.375722896162356
-6.424597543297474
-1.5895323109788664
4.649759670405127
10.422430762188142
10.97297627222095
10.97431906614786
10.97431906614786
10.975326161593042
10.97566186007477
10.97431906614786
10.169985503929198
6.882825970855267
2.466376745250629
-2.537209124895094
-7.545159075303274
-10.97297627222095
-10.986404211490042
-10.988418402380407
-10.988418402380407
-10.98808270389868
-8.89634546425574
-6.097291523613336
-1.4894941634241243
4.387914854657816
9.838986800946058
10.972640573739222
10.97431906614786
10.974990463111313
10.97566186007477
10.97566186007477
10.97566186007477
9.224658579385062
6.195315480277714
2.0014343480582895
-2.786633096818494
-7.545494773784999
-10.967940794995041
-10.986404211490042
-10.98808270389868
-10.988418402380407
-10.693339436942091
-8.78489356832227
-6.125490196078431
-1.6455939574273286
4.080415045395591
9.240100709544517
10.971633478294041
10.97431906614786
10.97431906614786
10.97566186007477
10.97566186007477
10.801098649576563
8.598916609445334
5.647455558098725
1.5834897383077742
-3.0343785763332565
-7.605920500495917
-10.964583810177768
-10.98673990997177
-10.98808270389868
-10.98808270389868
-10.443244068055236
-8.622751201647972
-5.9529411764705875
-1.5895323109788664
3.8293125810635535
8.813763637750819
10.970290684367132
10.97297627222095
10.97431906614786
10.974990463111313
10.97566186007477
10.160585946440833
8.073884184023806
5.119737544823376
1.208178835736629
-3.1884641794460977
-7.654261081864653
-10.963576714732586
-10.98673990997177
-10.987747005416953
-10.988418402380407
-10.389868009460594
-8.573739223315787
-5.944884412909133
-1.6210879682612342
3.7380025940337225
8.598916609445334
10.968947890440223
10.97431906614786
10.97431906614786
10.97566186007477
10.97566186007477
9.651667048142214
7.638818951705195
4.780010681315328
0.8973220416571298
-3.4566872663462274
-7.80364690623331
-10.965926604104675
-10.986404211490042
-10.98808270389868
-10.988754100862135
-10.222690165560389
-8.439459830624857
-5.867002365148394
-1.6680857557030597
3.5923094529640642
8.331029221026931
10.967605096513314
10.97297627222095
10.974990463111313
10.97431906614786
10.97566186007477
9.349538414587624
7.37630273899443
4.524879835202563
0.6811322194247349
-3.6319218738078884
-7.928526741435874
-10.967605096513314
-10.98673990997177
-10.98808270389868
-10.988418402380407
-10.117952239261463
-8.351842526894025
-5.77099259937438
-1.6063172350652324
3.4781719691767754
8.147737850003814
10.964919508659495
10.97431906614786
10.97431906614786
10.974990463111313
10.771557183184557
9.09037918669413
7.147356374456398
4.279148546578164
0.5018692301823452
-3.680933852140078
-7.912748912794691
-10.96559090562295
-10.98673990997177
-10.98808270389868
-10.988418402380407
-10.080689707789732
-8.291752498664836
-5.748165102616921
-1.6308232242313268
3.488242923628595
8.122224765392538
10.964919508659495
10.97297627222095
10.97431906614786
10.97431906614786
10.599008163576713
8.9339436942092
6.939223315785458
4.107270923933776
0.3823605706874189
-3.776943617914091
-8.040314335851072
-10.970962081330585
-10.987075608453498
-10.987747005416953
-10.988754100862135
-10.063569085221637
-8.324650949874112
-5.721309224078736
-1.552605477988861
3.555382619974059
8.06179903868162
10.958205539024949
10.97431906614786
10.97431906614786
10.97431906614786
10.429144731822689
8.68955519951171
6.691477836270694
3.935393301289387
0.2568093385214008
-3.8716105897611963
-8.013458457312886
-10.968276493476766
-10.98673990997177
-10.988418402380407
-10.988418402380407
-10.058869306477455
-8.323308155947203
-5.684718089570458
-1.5210498207064926
3.5822384985122446
8.145052262149994
10.96156252384222
10.97431906614786
10.97431906614786
10.974990463111313
10.263981078812849
8.600259403372243
6.637766079194323
3.7380025940337225
-0.016784924086366067
-4.084443427176318
-8.227969787136646
-10.97297627222095
-10.98673990997177
-10.988418402380407
-10.988418402380407
-9.969909208819715
-8.22226291294728
-5.604486152437629
-1.4250400549324787
3.609094377050431
8.087312123292898
10.959548332951858
10.97431906614786
10.97566186007477
10.97431906614786
10.20221255817502
8.487464713511862
6.566598001068131
3.7994354161898225
0.0426337071793698
-4.109956511787595
-8.23837644007019
-10.97297627222095
-10.98673990997177
-10.988418402380407
-10.988754100862135
-9.976623178454261
-8.263889524681467
-5.61052872510872
-1.3693141069657433
3.7071183337148086
8.127595941100175
10.95686274509804
10.97431906614786
10.97431906614786
10.974990463111313
10.09210345616846
8.472693980315862
6.533028152895399
3.6319218738078884
-0.14804303044174866
-4.277470054169528
-8.39011215381094
-10.975997558556495
-10.987075608453498
-10.988418402380407
-10.988754100862135
-9.922240024414435
-8.21084916456855
-5.5826657511253535
-1.311238269626917
3.711818112458991
8.11953917753872
10.958205539024949
10.97431906614786
10.97566186007477
10.97431906614786
10.080018310826274
8.444495307850767
6.510872053101395
3.5782101167315172
-0.22323949034866863
-4.344274052033264
-8.49149309529259
-10.977340352483406
-10.987411306935224
-10.988418402380407
-10.988754100862135
-9.917540245670253
-8.185000381475547
-5.53029678797589
-1.2155642023346303
3.8521400778210113
8.208163576714732
10.959548332951858
10.97431906614786
10.975326161593042
10.974990463111313
9.9967650873579
8.376012817578392
6.42761882963302
3.5063706416418707
-0.31992065308613715
-4.458411535820553
-8.523720149538413
-10.97801174944686
-10.987075608453498
-10.988418402380407
-10.988754100862135
-9.948088807507439
-8.152437628747998
-5.413138017853055
-1.1658808270389869
3.8716105897611963
8.29477378500038
10.962233920805676
10.97297627222095
10.974990463111313
10.974990463111313
9.981322957198444
8.300816357671472
6.30475318532082
3.3808194094758517
-0.4280155642023346
-4.517494468604562
-8.636179140917065
-10.979018844892042
-10.987411306935224
-10.988418402380407
-10.988754100862135
-9.91284046692607
-8.206820782787823
-5.433279926756695
-1.016830701152056
4.044159609369039
8.404211490043489
10.964919508659495
10.97297627222095
10.974990463111313
10.974990463111313
9.944396124208438
8.23501945525292
6.230228122377356
3.345906767376211
-0.47031357289997716
-4.596047913328755
-8.712382696269168
-10.979690241855495
-10.987411306935224
-10.988418402380407
-10.98908979934386
-9.833951323720148
-8.055756466010529
-5.281544213015946
-0.964461738002594
4.081757839322499
8.460608834973677
10.964919508659495
10.97297627222095
10.97431906614786
10.974990463111313
9.886655985351338
8.229648279545282
