EMG Sensor 0,EMG Sensor 1
0.0,0.0
0.0,0.0
0.0,0.0
0.0,0.0
0.0,0.0
0.0,0.0
0.0,0.0
0.0,0.0
0.0,0.0
0.0,0.0
0.0,0.0
0.0,0.0
0.0,0.0
0.0,0.0
0.0,0.0
0.0,0.0
0.0,0.0
0.0,0.0
0.0,0.0
0.0,0.0
0.0,0.0
0.0,0.0
0.0,0.0
0.0,0.0
0.0,0.0
0.0,0.0
0.0,0.0
0.0,0.0
0.0,0.0
0.0,0.0
0.0,0.0
0.0,0.0
0.0,0.0
0.0,0.0
0.0,0.0
0.0,0.0
0.0,0.0
0.0,0.0
0.0,0.0
0.0,0.0
0.0,0.0
0.0,0.0
0.0,0.0
0.0,0.0
0.0,0.0
0.0,0.0
0.0,0.0
0.0,0.0
0.0,0.0
0.0,0.0
0.0,0.0
0.0,0.0
0.0,0.0
0.0,0.0
0.0,0.0
0.0,0.0
0.0,0.0
0.0,0.0
0.0,0.0
0.0,0.0
0.0,0.0
0.0,0.0
0.0,0.0
0.0,0.0
0.0,0.0
0.0,0.0
0.0,0.0
0.0,0.0
0.0,0.0
0.0,0.0
0.0,0.0
0.0,0.0
0.0,0.0
0.0,0.0
0.0,0.0
0.0,0.0
0.0,0.0
0.0,0.0
0.0,0.0
0.0,0.0
0.0,0.0
0.0,0.0
0.0,0.0
0.0,0.0
0.0,0.0
0.0,0.0
0.0,0.0
0.0,0.0
0.0,0.0
0.0,0.0
0.0,0.0
0.0,0.0
0.0,0.0
0.0,0.0
0.0,0.0
0.0,0.0
0.0,0.0
0.0,0.0
0.0,0.0
0.0,0.0
0.0,0.0
0.0,0.0
0.0,0.0
0.0,0.0
0.0,0.0
0.0,0.0
0.0,0.0
0.0,0.0
0.0,0.0
0.0,0.0
0.0,0.0
0.0,0.0
0.0,0.0
0.0,0.0
0.0,0.0
0.0,0.0
0.0,0.0
0.0,0.0
0.0,0.0
0.0,0.0
0.0,0.0
0.0,0.0
0.0,0.0
0.0,0.0
0.0,0.0
0.0,0.0
0.0,0.0
0.0,0.0
0.0,0.0
0.0,0.0
0.0,0.0
0.0,0.0
0.0,0.0
0.0,0.0
0.0,0.0
0.0,0.0
0.0,0.0
0.0,0.0
0.0,0.0
0.0,0.0
0.0,0.0
0.0,0.0
0.0,0.0
0.0,0.0
0.0,0.0
0.0,0.0
0.0,0.0
0.0,0.0
0.0,0.0
0.0,0.0
0.0,0.0
0.0,0.0
0.0,0.0
0.0,0.0
0.0,0.0
0.0,0.0
0.0,0.0
0.0,0.0
0.0,0.0
0.0,0.0
0.0,0.0
0.0,0.0
0.0,0.0
0.0,0.0
0.0,0.0
0.0,0.0
0.0,0.0
0.0,0.0
0.0,0.0
0.0,0.0
0.0,0.0
0.0,0.0
0.0,0.0
0.0,0.0
0.0,0.0
0.0,0.0
0.0,0.0
0.0,0.0
0.0,0.0
0.0,0.0
0.0,0.0
0.0,0.0
0.0,0.0
0.0,0.0
0.0,0.0
0.0,0.0
0.0,0.0
0.8812085145342183,0.0
0.8449530785076678,0.0
0.716716258487831,0.0
0.49179827573052565,0.0
0.2306248569466697,0.0
0.01376363775082017,0.0
-0.14804303044174866,0.0
-0.30112153810940717,0.0
-0.4662851911192492,0.0
-0.6139925230792705,0.0
-0.7570000762951096,0.0
-0.7898985275043869,0.0
-0.7415579461356527,0.0
-0.6609903105210956,0.0
-0.5374532692454412,0.0
-0.3984740978103304,0.0
-0.14132906080720226,0.0
0.21551842526894024,0.0
0.5293965056839857,0.0
0.7523002975509269,0.0
0.8667734798199436,0.0
0.8939650568398566,0.0
0.8345464255741207,0.0
0.7006027313649194,0.0
0.4921339742122529,0.0
0.2333104448004883,0.0
0.023163195239185166,0.0
-0.14602883955138474,0.0
-0.30380712596322573,0.0
-0.4682993820096132,0.0
-0.6304417486839092,0.0
-0.7516289005874722,0.0
-0.7919127183947509,0.0
-0.7506218051422903,0.0
-0.6630045014114595,0.0
-0.5622949568932631,0.0
-0.39377431906614785,0.0
-0.13797207598992905,0.0
0.2064545662623026,0.0
0.5233539330128938,0.0
0.7429007400625619,0.0
0.8711375600823987,0.0
0.8993362325474935,0.0
0.8563668268863965,0.0
0.714702067597467,0.0
0.49112687876707095,0.0
0.2333104448004883,0.0
0.025177386129549097,0.0
-0.1292439154650187,0.0
-0.3017929350728618,0.0
-0.46762798504615855,0.0
-0.6233920805676355,0.0
-0.7432364385442893,0.0
-0.7710994125276569,0.0
-0.74692912184329,0.0
-0.6710612649729152,0.0
-0.5535667963683528,0.0
-0.39511711299305713,0.0
-0.11514457923247119,0.0
0.23028915846494238,0.0
0.5461814297703517,0.0
0.7570000762951096,0.0
0.8818799114976732,0.0
0.9188067444876783,0.0
0.8617380025940338,0.0
0.7194018463416494,0.0
0.48709849698634317,0.0
0.2366674296177615,0.0
0.02752727550164034,0.0
-0.13931486991683834,0.0
-0.2890363927672236,0.0
-0.4693064774547951,0.0
-0.6304417486839092,0.0
-0.7643854428931105,0.0
-0.7996337834744792,0.0
-0.7516289005874722,0.0
-0.6797894254978255,0.0
-0.5535667963683528,0.0
-0.3941100175478751,0.0
-0.12722972457465478,0.0
0.23465323872739755,0.0
0.5448386358434424,0.0
0.7637140459296559,0.0
0.8778515297169451,0.0
0.9047074082551309,0.0
0.8536812390325781,0.0
0.7274586099031052,0.0
0.5072404058899825,0.0
0.2299534599832151,0.0
0.021820401312275882,0.0
-0.13931486991683834,0.0
-0.29575036240177,0.0
-0.4588998245212481,0.0
-0.6341344319829099,0.0
-0.7603570611123827,0.0
-0.7999694819562065,0.0
-0.7576714732585641,0.0
-0.6556191348134585,0.0
-0.5387960631723507,0.0
-0.3830319676508736,0.0
-0.12655832761120012,0.0
0.21988250553139543,0.0
0.534096284428168,0.0
0.7650568398565653,0.0
0.8906080720225832,0.0
0.8919508659494928,0.0
0.8321965362020294,0.0
0.703288319218738,0.0
0.4877698939497978,0.0
0.23465323872739755,0.0
0.003692683299000534,0.0
-0.14401464866102082,0.0
-0.29642175936522464,0.0
-0.46359960326543065,0.0
-0.6113069352254519,0.0
-0.7590142671854733,0.0
-0.7858701457236591,0.0
-0.74692912184329,0.0
-0.6596475165941862,0.0
-0.5226825360494392,0.0
-0.3696040283817807,0.0
-0.11514457923247119,0.0
0.20914015411612116,0.0
0.5220111390859845,0.0
0.7543144884412909,0.0
0.8899366750591287,0.0
0.9120927748531319,0.0
0.8375677119096665,0.0
0.7140306706340124,0.0
0.48944838635843446,0.0
0.23263904783703362,0.0
0.03256275272755016,0.0
-0.14032196536202027,0.0
-0.29910734721904325,0.0
-0.4756847486076141,0.0
-0.6348058289463645,0.0
-0.7583428702220187,0.0
-0.7956054016937515,0.0
-0.7442435339894713,0.0
-0.6717326619363697,0.0
-0.5690089265278097,0.0
-0.3917601281757839,0.0
-0.11984435797665367,0.0
0.213168535896849,0.0
0.5220111390859845,0.0
0.7583428702220187,0.0
0.8697947661554895,0.0
0.9040360112916762,0.0
0.8483100633249409,0.0
0.7073167009994659,0.0
0.49246967269398023,0.0
0.2158541237506676,0.0
0.011413748378728923,0.0
-0.1420004577706569,0.0
-0.3064927138170443,0.0
-0.4666208896009766,0.0
-0.6348058289463645,0.0
-0.7623712520027466,0.0
-0.787884336614023,0.0
-0.739879453727016,0.0
-0.6515907530327305,0.0
-0.5508812085145341,0.0
-0.38504615854123747,0.0
-0.11850156404974439,0.0
0.23599603265430688,0.0
0.5434958419165331,0.0
0.7570000762951096,0.0
0.8912794689860379,0.0
0.9073929961089494,0.0
0.8617380025940338,0.0
0.722087434195468,0.0
0.48575570305943383,0.0
0.2306248569466697,0.0
0.013092240787365528,0.0
-0.15072861829556725,0.0
-0.3105210955977722,0.0
-0.49985503929198144,0.0
-0.6737468528267337,0.0
-0.8147402151522086,0.0
-0.8221255817502098,0.0
-0.7650568398565653,0.0
-0.6912031738765545,0.0
-0.573708705271992,0.0
-0.42197299153124274,0.0
-0.1406576638437476,0.0
0.21988250553139543,0.0
0.547524223697261,0.0
0.7663996337834744,0.0
0.8953078507667659,0.0
0.9376058594644082,0.0
0.8684519722285801,0.0
0.7368581673914703,0.0
0.5152971694514382,0.0
0.2521095597772183,0.0
0.04095521477073319,0.0
-0.1292439154650187,0.0
-0.2729228656443122,0.0
-0.43305104142824447,0.09114213778896772
-0.5972075989929045,0.07402151522087433
-0.7351796749828337,0.052201113908598454
-0.780498970016022,0.026184481574731057
-0.7200732433051041,-0.01292439154650187
-0.6344701304646372,-0.05824368657969024
-0.5253681239032578,-0.09617761501487754
-0.37262531471732663,-0.11699092088197145
-0.11950865949492637,-0.12236209658960862
0.24539559014267184,-0.12169069962615398
0.5468528267338063,-0.12370489051651787
0.7623712520027466,-0.12941176470588234
0.8869153887235829,-0.1351186388952468
0.9033646143282215,-0.13881132219424736
0.8415960936903946,-0.1492179751277943
0.6999313344014648,-0.16331731136034178
0.4938124666208897,-0.1774166475928893
0.24338139925230795,-0.18815899900816355
0.023834592202639806,-0.1915159838254368
-0.13864347295338367,-0.18446631570916305
-0.307164110780499,-0.1696955825131609
-0.46091401541161203,-0.15291065842679483
-0.6260776684214542,-0.13394369420920116
-0.7684138246738383,-0.11531242847333485
-0.7945983062485694,-0.09752040894178682
-0.7502861066605631,-0.07939269092851148
-0.6623331044480048,-0.05958648050659952
-0.5512169069962614,-0.03508049134050507
-0.39713130388342105,-0.006210421911955443
-0.13394369420920116,0.032730601968413826
0.21719691767757685,0.07872129396505684
0.5354390783550775,0.11934081025406272
0.7476005188067445,0.14418249790188448
0.8939650568398566,0.1555962462806134
0.9248493171587702,0.15962462806134128
0.8536812390325781,0.1552605477988861
0.7113450827801938,0.14737163347829402
0.48374151216906996,0.13746852826733807
0.23733882658121616,0.11934081025406272
0.01913481345845731,0.09517051956969558
-0.15408560311284045,0.0750286106660563
-0.31589227130540926,0.059250782024872196
-0.47299916075379567,0.0387731746395056
-0.6267490653849087,0.0052033264667734795
-0.7603570611123827,-0.03776607919432364
-0.7898985275043869,-0.08241397726405737
-0.74692912184329,-0.11464103150988021
-0.6569619287403676,-0.12639047837033646
-0.5522240024414434,-0.12773327229724574
-0.4025024795910582,-0.1270618753337911
-0.11581597619592585,-0.12806897077897306
0.22189669642175933,-0.13209735255970093
0.538124666208896,-0.13847562371252
0.7690852216372929,-0.147875181200885
0.8885938811322195,-0.15996032654306858
0.9235065232318609,-0.175066758220798
0.8630807965209428,-0.1901731898985275
0.716716258487831,-0.19638361181048294
0.4763561455710689,-0.1874876020447089
0.21853971160448613,-0.16768139162279697
0.005706874189364461,-0.14720378423743039
-0.16684214541847867,-0.13310444800488286
-0.3226062409399557,-0.12169069962615398
-0.4797131303883421,-0.10893415732051576
-0.6354772259098191,-0.0891279468986038
-0.7630426489662012,-0.07133592736705577
-0.8013122758831158,-0.059250782024872196
-0.7429007400625619,-0.04061951628900587
-0.6609903105210956,-0.0028534370946822307
-0.5525597009231707,0.050186923018234526
-0.39243152513923857,0.10255588616769665
-0.12252994583047226,0.13545433737697413
0.23935301747158008,0.14854657816433967
0.5394674601358053,0.1552605477988861
0.7590142671854733,0.15895323109788664
0.8872510872053101,0.15828183413443195
0.9114213778896771,0.1492179751277943
0.8671091783016709,0.13276874952315554
0.7247730220492866,0.11195544365606165
0.4897840848401617,0.08778515297169451
0.2306248569466697,0.06495765621423667
0.013092240787365528,0.042801556420233464
-0.15106431677729457,0.01829556725413901
-0.30447852292668043,-0.012252994583047227
-0.46259250782024874,-0.048508430609597926
-0.6502479591058212,-0.08375677119096665
-0.7818417639429311,-0.1096055542839704
-0.8019836728465705,-0.12236209658960862
-0.7382009613183794,-0.12739757381551842
-0.6421911955443655,-0.1279011215381094
-0.554909590295262,-0.13109025711451894
-0.3964599069199664,-0.14048981460288396
-0.12387273975738157,-0.1525749599450675
0.2239108873121233,-0.16264591439688714
0.5522240024414434,-0.1688563363088426
0.7570000762951096,-0.17540245670252536
0.8751659418631266,-0.18211642633707179
0.9053788052185856,-0.18413061722743573
0.8509956511787593,-0.1774166475928893
0.7100022888532844,-0.15794613565270463
0.47904173342488743,-0.13109025711451894
0.22659647516594186,-0.1079270618753338
0.009399557488364994,-0.09349202716105898
-0.1560997940032044,-0.08207827878233005
-0.31454947737850003,-0.06865033951323721
-0.47098496986343175,-0.05555809872587166
-0.620706492713817,-0.040451667048142216
-0.7650568398565653,-0.014267185473411156
-0.7992980849927518,0.02937361715114061
-0.7435721370260167,0.08174258030060273
-0.6542763408865492,0.12605477988860914
-0.5320820935378041,0.14988937209124895
-0.3904173342488746,0.1586175326161593
-0.13058670939192796,0.15996032654306858
0.22592507820248725,0.1576104371709773
0.5421530479896238,0.1535820553902495
0.7754634927901122,0.14552529182879376
0.8899366750591287,0.12739757381551842
0.9033646143282215,0.10305943389028763
0.8395819028000304,0.08039978637369342
0.716716258487831,0.06294346532387274
0.4907911802853437,0.04548714427405204
0.23465323872739755,0.014602883955138474
0.032898451209277486,-0.027023727779049357
-0.14703593499656673,-0.06965743495841917
-0.3179064621957733,-0.10524147402151522
-0.47904173342488743,-0.12739757381551842
-0.6327916380560006,-0.1364614328221561
-0.7590142671854733,-0.13780422674906534
-0.8167544060425727,-0.13881132219424736
-0.7623712520027466,-0.1445181963836118
-0.6683756771190966,-0.147875181200885
-0.5508812085145341,-0.15056076905470359
-0.38638895246814675,-0.15660334172579538
-0.12655832761120012,-0.16633859769588769
0.2306248569466697,-0.17808804455634394
0.5414816510261692,-0.18681620508125427
0.7623712520027466,-0.18547341115434499
0.8979934386205843,-0.17204547188525215
0.9181353475242238,-0.15324635690852215
0.8657663843747615,-0.1364614328221561
0.7150377660791943,-0.11799801632715344
0.4830701152056153,-0.10087739375906005
0.22928206301976042,-0.09030289158464942
0.01846341649500267,-0.08207827878233005
-0.1534142061493858,-0.06596475165941862
-0.3252918287937743,-0.03743038071259632
-0.47702754253452356,0.001846341649500267
-0.6348058289463645,0.049515526054779886
-0.7704280155642024,0.09517051956969558
-0.7939269092851148,0.12370489051651787
-0.7523002975509269,0.139482719157702
-0.6546120393682765,0.15022507057297627
-0.5488670176241703,0.1542534523537041
-0.3870603494316014,0.15056076905470359
-0.11984435797665367,0.1445181963836118
0.22928206301976042,0.13461509117265583
0.5495384145876249,0.11531242847333485
0.7704280155642024,0.09164568551155872
0.900679026474403,0.06999313344014649
0.9245136186770427,0.04682993820096131
0.8610666056305791,0.01560997940032044
0.7348439765011063,-0.020309758144502935
0.4961623559929808,-0.055390249485008015
0.22793926909285112,-0.08375677119096665
0.01812771801327535,-0.10054169527733271
-0.13327229724574652,-0.1096055542839704
-0.2937361715114062,-0.11900511177233539
-0.4763561455710689,-0.12773327229724574
-0.630106050202182,-0.13310444800488286
-0.7737850003814756,-0.13881132219424736
-0.8006408789196613,-0.1445181963836118
-0.7459220263981079,-0.1492179751277943
-0.6576333257038225,-0.1542534523537041
-0.5304036011291676,-0.16566720073243305
-0.39243152513923857,-0.18060578316929884
-0.12252994583047226,-0.1874876020447089
0.23599603265430688,-0.17607385366598
0.5421530479896238,-0.1525749599450675
0.7637140459296559,-0.13142595559624626
0.8771801327534905,-0.11833371480888075
0.8953078507667659,-0.11094834821087966
0.8550240329594874,-0.09919890135042343
0.7281300068665598,-0.0767071030746929
0.4763561455710689,-0.05488670176241703
0.19839780270084686,-0.037094682230869
0.004364080262455177,-0.011581597619592583
-0.15072861829556725,0.02937361715114061
-0.30380712596322573,0.0800640878919661
-0.4662851911192492,0.12001220721751735
-0.6428625925078203,0.13998626688029298
-0.7620355535210193,0.14552529182879376
-0.8039978637369345,0.1461966887922484
-0.7536430914778363,0.14821087968261232
-0.6495765621423666,0.14888227664606699
-0.5428244449530785,0.14216830701152056
-0.38471046005951015,0.13276874952315554
-0.12655832761120012,0.11900511177233539
0.22458228427557791,0.09819180590524147
0.5434958419165331,0.07335011825741969
0.7697566186007476,0.041123064011596856
0.8842298008697641,0.001846341649500267
0.8993362325474935,-0.03910887312123293
0.8466315709163043,-0.07351796749828336
0.7006027313649194,-0.09584191653315023
0.4797131303883421,-0.10893415732051576
0.23599603265430688,-0.11900511177233539
0.02584878309300374,-0.12806897077897306
-0.14132906080720226,-0.13713282978561073
-0.30783550774395363,-0.14518959334706644
-0.4588998245212481,-0.14821087968261232
-0.6062714579995422,-0.14854657816433967
-0.7496147096971084,-0.1525749599450675
-0.7872129396505684,-0.16432440680552376
-0.7482719157701991,-0.18211642633707179
-0.6640115968566415,-0.19554436560616464
-0.5441672388799876,-0.19487296864270998
-0.39243152513923857,-0.1790951400015259
-0.11715877012283514,-0.15408560311284045
0.22659647516594186,-0.1317616540779736
0.5351033798733501,-0.11699092088197145
0.7529716945143816,-0.1079270618753338
0.8932936598764019,-0.09987029831387809
0.9201495384145875,-0.08879224841687647
0.8614023041123062,-0.07066453040360113
0.7227588311589227,-0.041794460975051496
0.4797131303883421,-0.0035248340581368735
0.2299534599832151,0.04213015945677882
0.0315556572823682,0.092484931715877
-0.1500572213321126,0.13276874952315554
-0.31454947737850003,0.15727473868925002
-0.4850843060959793,0.16700999465934235
-0.6435339894712748,0.16549935149156939
-0.7670710307469292,0.15828183413443195
-0.7986266880292973,0.15140001525902191
-0.74692912184329,0.14418249790188448
-0.6613260090028229,0.12974746318760969
-0.538124666208896,0.10725566491187914
-0.37228961623559925,0.08073548485542076
-0.1057450217441062,0.05421530479896238
0.22793926909285112,0.022995345998321506
0.5361104753185321,-0.017959868772411687
0.7717708094911115,-0.06126497291523613
0.8802014190890363,-0.09852750438696878
0.9127641718165865,-0.12370489051651787
0.8590524147402151,-0.13579003585870145
0.713694972152285,-0.13780422674906534
0.481727321278706,-0.13797207598992905
0.21048294804303044,-0.13746852826733807
0.006378271152819104,-0.13730067902647441
-0.14804303044174866,-0.14048981460288396
-0.3172350652323186,-0.14720378423743039
-0.48105592431525135,-0.1586175326161593
-0.6448767833981841,-0.17422751201647974
-0.7697566186007476,-0.18883039597161821
-0.806683451590753,-0.19285877775234606
-0.7643854428931105,-0.18010223544670784
-0.675089646753643,-0.15878538185702296
-0.5659876401922636,-0.1411612115663386
-0.4004882887006942,-0.12471198596169988
-0.12387273975738157,-0.10691996643015184
0.2306248569466697,-0.08879224841687647
0.5320820935378041,-0.07200732433051041
0.7663996337834744,-0.06126497291523613
0.900679026474403,-0.05119401846341649
0.9100785839627679,-0.029037918669413288
0.8600595101853972,0.01628137636377508
0.7298084992751963,0.0750286106660563
0.4897840848401617,0.12303349355306323
0.23733882658121616,0.1512321660181582
0.022491798275730522,0.16298161287861446
-0.13360799572747387,0.16264591439688714
-0.29306477454795143,0.15626764324406803
-0.4588998245212481,0.1475394827191577
-0.6294346532387274,0.1381399252307927
-0.7684138246738383,0.1240405889982452
-0.7952697032120242,0.10356298161287861
-0.7462577248798351,0.08224612802319371
-0.6542763408865492,0.06327916380560006
-0.5448386358434424,0.04213015945677882
-0.38974593728541995,0.009567406729228655
-0.11044480048828872,-0.029709315632867935
0.2366674296177615,-0.06747539482719157
0.5582665751125353,-0.09752040894178682
0.7771419851987488,-0.11229114213778896
0.8979934386205843,-0.11866941329060808
0.9181353475242238,-0.12236209658960862
0.8509956511787593,-0.11967650873579004
0.731486991683833,-0.11833371480888075
0.4975051499198901,-0.12639047837033646
0.22760357061112382,-0.1414969100480659
0.017792019531548024,-0.15190356298161287
-0.14804303044174866,-0.15593194476234074
-0.30112153810940717,-0.16079957274738685
-0.47299916075379567,-0.16801709010452429
-0.6354772259098191,-0.17305256733043411
-0.7657282368200198,-0.17070267795834287
-0.7979552910658427,-0.15727473868925002
-0.7388723582818341,-0.1347829404135195
-0.6532692454413671,-0.10910200656137943
-0.5387960631723507,-0.08946364538033112
-0.3749752040894178,-0.07536430914778362
-0.10171663996337835,-0.06764324406805522
0.2464026855878538,-0.06294346532387274
0.5461814297703517,-0.04515144579232471
0.7808346684977492,-0.008224612802319372
0.8953078507667659,0.04582284275577936
0.917463950560769,0.1002059967956054
0.8617380025940338,0.13847562371252
0.7086594949263753,0.1552605477988861
0.4867627985046159,0.1586175326161593
0.2239108873121233,0.1555962462806134
0.009735255970092317,0.14955367360952163
-0.1534142061493858,0.14401464866102082
-0.31320668345159075,0.13679713130388343
-0.47031357289997716,0.12336919203479056
-0.6515907530327305,0.10289158464942397
-0.7838559548332952,0.07637140459296558
-0.8090333409628443,0.04800488288700694
-0.7523002975509269,0.017792019531548024
-0.6529335469596399,-0.019638361181048294
-0.5421530479896238,-0.05958648050659952
-0.3769893949797818,-0.0955062180514229
-0.12387273975738157,-0.12034790569924468
0.22256809338521402,-0.13142595559624626
0.534096284428168,-0.13662928206301975
0.7516289005874722,-0.13746852826733807
0.8939650568398566,-0.14183260852979326
0.9100785839627679,-0.15190356298161287
0.8456244754711221,-0.16264591439688714
0.7046311131456473,-0.17271686884870677
0.4716563668268864,-0.18110933089188982
0.2272678721293965,-0.18648050659952697
0.006378271152819104,-0.19084458686198216
-0.16717784390020599,-0.18883039597161821
-0.3293202105745021,-0.18043793392843518
-0.4877698939497978,-0.166674296177615
-0.6562905317769131,-0.1508964675364309
-0.7778133821622034,-0.13612573434042877
-0.7872129396505684,-0.12101930266269931
-0.7529716945143816,-0.10356298161287861
-0.6697184710460059,-0.08744945448996719
-0.5508812085145341,-0.07301441977569237
-0.39243152513923857,-0.05354390783550774
-0.11883726253147174,-0.025680933852140077
0.2114900434882124,0.01359578850995651
0.528725108720531,0.0639505607690547
0.7677424277103838,0.11195544365606165
0.8859082932784007,0.1411612115663386
0.9124284733348592,0.15156786449988555
0.839917601281758,0.15492484931715875
0.7006027313649194,0.1535820553902495
0.4750133516441596,0.1492179751277943
0.2178683146410315,0.14183260852979326
0.02719157701991302,0.1253833829251545
-0.14401464866102082,0.10725566491187914
-0.30112153810940717,0.08979934386205844
-0.46762798504615855,0.07167162584878309
-0.6415197985809108,0.04917982757305257
-0.7684138246738383,0.01594567788204776
-0.7996337834744792,-0.022995345998321506
-0.7348439765011063,-0.060090028229190504
-0.6576333257038225,-0.09013504234378575
-0.5387960631723507,-0.10893415732051576
-0.3773250934615091,-0.11766231784542608
-0.11245899137865262,-0.11783016708628975
0.24539559014267184,-0.12034790569924468
0.5455100328068971,-0.1270618753337911
0.7744563973449301,-0.13797207598992905
0.8953078507667659,-0.15056076905470359
0.9154497596704052,-0.15928892957961394
0.8637521934843976,-0.16432440680552376
0.714702067597467,-0.17288471808957045
0.48709849698634317,-0.18211642633707179
0.23263904783703362,-0.18480201419089035
0.022491798275730522,-0.17875944151979858
-0.14267185473411154,-0.16331731136034178
-0.3001144426642252,-0.14015411612115664
-0.46091401541161203,-0.11564812695506219
-0.6381628137636377,-0.0988632028686961
-0.7697566186007476,-0.08744945448996719
-0.7905699244678416,-0.0767071030746929
-0.7455863279163805,-0.06529335469596398
-0.6569619287403676,-0.0481727321278706
-0.5575951781490806,-0.01560997940032044
-0.3904173342488746,0.035248340581368734
-0.11648737315938049,0.09013504234378575
0.23431754024567028,0.13310444800488286
0.5582665751125353,0.16231021591515984
0.7677424277103838,0.17708094911116198
0.8966506446936751,0.17473105973907072
0.9208209353780422,0.16264591439688714
0.8617380025940338,0.15223926146334021
0.7207446402685587,0.14082551308461125
0.4884412909132525,0.12437628747997252
0.2306248569466697,0.10457007705806058
0.013092240787365528,0.08509956511787593
-0.15072861829556725,0.06160067139696345
-0.30380712596322573,0.0260166323338674
-0.46494239719234,-0.019806210421911954
-0.6274204623483635,-0.06327916380560006
-0.7737850003814756,-0.09315632867933166
-0.806683451590753,-0.10356298161287861
-0.7637140459296559,-0.10708781567101548
-0.6562905317769131,-0.11380178530556191
-0.5314106965743495,-0.11967650873579004
-0.3964599069199664,-0.12437628747997252
-0.11648737315938049,-0.13142595559624626
0.23196765087357898,-0.14015411612115664
0.5354390783550775,-0.14586099031052108
0.7674067292286564,-0.15190356298161287
0.8838941023880368,-0.16348516060120546
0.9087357900358587,-0.17875944151979858
0.8503242542153048,-0.18614480811779963
0.7120164797436483,-0.18211642633707179
0.4830701152056153,-0.16734569314106965
0.22525368123903253,-0.14703593499656673
0.025177386129549097,-0.12773327229724574
-0.15072861829556725,-0.11094834821087966
-0.31454947737850003,-0.09382772564278628
-0.4783703364614328,-0.07536430914778362
-0.6401770046540016,-0.061936369878690785
-0.7737850003814756,-0.04783703364614328
-0.8167544060425727,-0.02265964751659419
-0.7570000762951096,0.016617074845502403
-0.6650186923018233,0.06630045014114595
-0.5512169069962614,0.11262684061951626
-0.3769893949797818,0.14283970397497517
-0.10977340352483406,0.15962462806134128
0.24505989166094452,0.16734569314106965
0.5515526054779888,0.16264591439688714
0.7744563973449301,0.147875181200885
0.900679026474403,0.13327229724574652
0.9161211566338597,0.1240405889982452
0.8469672693980316,0.11464103150988021
0.6925459678034637,0.09835965514610515
0.4696421759365224,0.07603570611123828
0.21451132982375828,0.049515526054779886
0.025177386129549097,0.014267185473411156
-0.1453574425879301,-0.026352330815594724
-0.32193484397650113,-0.06596475165941862
-0.4763561455710689,-0.09416342412451362
-0.6489051651789121,-0.10826276035706112
-0.7835202563515677,-0.11732661936369877
-0.8039978637369345,-0.12236209658960862
-0.7482719157701991,-0.12773327229724574
-0.6475623712520028,-0.1347829404135195
-0.5468528267338063,-0.14351110093842984
-0.3870603494316014,-0.15190356298161287
-0.09903105210955977,-0.16163881895170518
0.2521095597772183,-0.1722133211261158
0.5636377508201724,-0.17943083848325322
0.7677424277103838,-0.17943083848325322
0.8912794689860379,-0.175066758220798
0.9154497596704052,-0.16197451743343252
0.8509956511787593,-0.14384679942015716
0.7019455252918287,-0.12907606622415504
0.47098496986343175,-0.11699092088197145
0.23465323872739755,-0.10255588616769665
0.03189135576409552,-0.08677805752651253
-0.1279011215381094,-0.07469291218432898
-0.30783550774395363,-0.0639505607690547
-0.48374151216906996,-0.04716563668268864
-0.6502479591058212,-0.01896696421759365
-0.7912413214312962,0.0260166323338674
-0.806683451590753,0.0797283894102388
-0.7482719157701991,0.12437628747997252
-0.658304722667277,0.1475394827191577
-0.5334248874647135,0.15022507057297627
-0.38974593728541995,0.1468680857557031
-0.10305943389028763,0.14216830701152056
0.26016632333867395,0.1351186388952468
0.5542381933318073,0.12437628747997252
0.7751277943083849,0.1096055542839704
0.8906080720225832,0.09047074082551307
0.9127641718165865,0.07335011825741969
0.8469672693980316,0.051865415426871134
0.7006027313649194,0.021652552071412222
0.47098496986343175,-0.014938582436865796
0.21719691767757685,-0.05253681239032577
0.012420843823910887,-0.08812085145342184
-0.157778286411841,-0.11464103150988021
-0.3105210955977722,-0.13125810635538263
-0.47367055771725036,-0.1351186388952468
-0.6529335469596399,-0.12907606622415504
-0.7818417639429311,-0.1257190814068818
-0.8100404364080261,-0.13142595559624626
-0.7576714732585641,-0.14586099031052108
-0.6730754558632792,-0.16499580376897838
-0.5616235599298084,-0.17943083848325322
-0.3890745403219653,-0.18715190356298161
-0.10775921263447012,-0.19084458686198216
0.24942397192339977,-0.18681620508125427
0.5636377508201724,-0.17540245670252536
0.7811703669794765,-0.16298161287861446
0.8986648355840391,-0.15223926146334021
0.9181353475242238,-0.13864347295338367
0.8664377813382161,-0.12169069962615398
0.7113450827801938,-0.10423437857633323
0.4897840848401617,-0.08744945448996719
0.22659647516594186,-0.07335011825741969
0.014770733196002136,-0.05656519417105363
-0.13662928206301975,-0.028366521705958644
-0.3172350652323186,0.010574502174410621
-0.4763561455710689,0.05824368657969024
-0.6448767833981841,0.10255588616769665
-0.7845273517967497,0.13579003585870145
-0.8133974212252995,0.15643549248493172
-0.7684138246738383,0.16633859769588769
-0.6569619287403676,0.16768139162279697
-0.5458457312886243,0.16197451743343252
-0.38504615854123747,0.14955367360952163
-0.09835965514610515,0.13276874952315554
0.2561379415579461,0.11464103150988021
0.566323338673991,0.09567406729228656
0.7862058442053864,0.07553215838864728
0.9154497596704052,0.05622949568932631
0.9261921110856793,0.030380712596322572
0.8456244754711221,-0.008224612802319372
0.7073167009994659,-0.05253681239032577
0.4662851911192492,-0.09164568551155872
0.22357518883039593,-0.11464103150988021
0.020477607385366595,-0.12504768444342718
-0.15207141222247655,-0.1270618753337911
-0.3064927138170443,-0.12605477988860914
-0.4881055924315251,-0.1270618753337911
-0.6505836575875485,-0.13579003585870145
-0.7690852216372929,-0.14653238727397572
-0.8033264667734799,-0.15660334172579538
-0.7576714732585641,-0.16734569314106965
-0.6724040588998245,-0.17943083848325322
-0.5468528267338063,-0.18413061722743573
-0.3857175555046921,-0.18144502937361714
-0.09903105210955977,-0.1710383764400702
0.2561379415579461,-0.1569390402075227
0.566323338673991,-0.1398184176394293
0.7925841153582055,-0.12370489051651787
0.9020218204013123,-0.1079270618753338
0.9221637293049515,-0.08879224841687647
0.8422674906538489,-0.07234302281223774
0.6959029526207371,-0.060090028229190504
0.4756847486076141,-0.043808651865415424
0.21853971160448613,-0.012252994583047227
0.029205767910276948,0.03440909437705043
-0.1500572213321126,0.08577096208133059
-0.32394903486686505,0.1253833829251545
-0.4877698939497978,0.1468680857557031
-0.658304722667277,0.15660334172579538
-0.7731136034180208,0.16281376363775082
-0.8019836728465705,0.16231021591515984
-0.7603570611123827,0.15408560311284045
-0.6653543907835507,0.13914702067597465
-0.5481956206607157,0.11850156404974439
-0.37228961623559925,0.09903105210955977
-0.09030289158464942,0.08308537422751203
0.2588235294117647,0.06730754558632791
0.5636377508201724,0.041123064011596856
0.7744563973449301,0.0021820401312275884
0.8838941023880368,-0.041794460975051496
0.9040360112916762,-0.08157473105973906
0.8603952086671244,-0.10826276035706112
0.700267032883192,-0.12101930266269931
0.4696421759365224,-0.1257190814068818
0.22861066605630578,-0.12387273975738157
0.013092240787365528,-0.12370489051651787
-0.13931486991683834,-0.1317616540779736
-0.29440756847486077,-0.14720378423743039
-0.46897077897306777,-0.16398870832379644
-0.6482337682154573,-0.17540245670252536
-0.772106507972839,-0.1774166475928893
-0.7872129396505684,-0.1790951400015259
-0.7432364385442893,-0.18245212481879908
-0.6609903105210956,-0.1774166475928893
-0.5508812085145341,-0.16264591439688714
-0.3833676661326009,-0.14653238727397572
-0.11245899137865262,-0.13109025711451894
0.23733882658121616,-0.11598382543678949
0.5596093690394446,-0.10490577553978789
0.7677424277103838,-0.09953459983215075
0.8832227054245823,-0.08812085145342184
0.9073929961089494,-0.06613260090028229
0.8449530785076678,-0.03390554665445944
0.7207446402685587,0.009903105210955977
0.4696421759365224,0.057572289616235596
0.2051117723353933,0.10054169527733271
0.0023498893720912484,0.1287403677424277
-0.1641565575646601,0.14216830701152056
-0.3175707637140459,0.14888227664606699
-0.49246967269398023,0.15022507057297627
-0.6596475165941862,0.1492179751277943
-0.7764705882352941,0.14418249790188448
-0.8127260242618447,0.12806897077897306
-0.7556572823682002,0.1065842679484245
-0.6623331044480048,0.08812085145342184
-0.5455100328068971,0.07435721370260165
-0.380346379797055,0.057572289616235596
-0.10641641870756083,0.02937361715114061
0.2480811779964904,-0.01292439154650187
0.5629663538567177,-0.06160067139696345
0.7952697032120242,-0.10289158464942397
0.8899366750591287,-0.12454413672083621
0.9047074082551309,-0.12773327229724574
0.8456244754711221,-0.12521553368429084
0.7140306706340124,-0.12370489051651787
0.5025406271457998,-0.12504768444342718
0.2306248569466697,-0.13243305104142825
0.014770733196002136,-0.147875181200885
-0.1453574425879301,-0.16398870832379644
-0.31924925612268257,-0.17305256733043411
-0.48105592431525135,-0.1782558937972076
-0.6408484016174563,-0.18413061722743573
-0.76069275959411,-0.18228427557793545
-0.7932555123216601,-0.1693598840314336
-0.7563286793316548,-0.15207141222247655
-0.6636758983749141,-0.13209735255970093
-0.5461814297703517,-0.11329823758297093
-0.3618829633020523,-0.10037384603646905
-0.09768825818265049,-0.0861066605630579
0.2574807354848554,-0.07083237964446479
0.5609521629663539,-0.056900892652780956
0.7724422064545662,-0.03978027008468757
0.9060502021820401,-0.010238803692683297
0.9110856794079499,0.03256275272755016
0.8402532997634852,0.07872129396505684
0.6938887617303731,0.11430533302815289
0.4615854123750668,0.1381399252307927
0.2178683146410315,0.15223926146334021
0.010406652933546959,0.15928892957961394
-0.1544213015945678,0.1569390402075227
-0.32394903486686505,0.14720378423743039
-0.49112687876707095,0.13444724193179217
-0.658304722667277,0.12001220721751735
-0.7798275730525673,0.10289158464942397
-0.7952697032120242,0.08577096208133059
-0.7529716945143816,0.06697184710460058
-0.6636758983749141,0.04078736552986953
-0.5468528267338063,0.0016784924086366065
-0.3756466010528725,-0.043472953383688104
-0.0772106507972839,-0.08426031891355765
0.250766765850309,-0.11195544365606165
0.5582665751125353,-0.12773327229724574
0.7704280155642024,-0.13780422674906534
0.8885938811322195,-0.14267185473411154
0.9100785839627679,-0.14250400549324788
0.83588921950103,-0.14048981460288396
0.691874570840009,-0.1461966887922484
0.45587853818570223,-0.1569390402075227
0.2051117723353933,-0.16902418554970625
0.005706874189364461,-0.1807736324101625
-0.15072861829556725,-0.1915159838254368
-0.3085069047074082,-0.1952086671244373
-0.48374151216906996,-0.18547341115434499
-0.6542763408865492,-0.16432440680552376
-0.7757991912718394,-0.1411612115663386
-0.7845273517967497,-0.12370489051651787
-0.7348439765011063,-0.11229114213778896
-0.6529335469596399,-0.10087739375906005
-0.5361104753185321,-0.0861066605630579
-0.3790035858701457,-0.07133592736705577
-0.08728160524910353,-0.05522240024414436
0.27090867475394825,-0.029877164873731592
0.55390249485008,0.006546120393682764
0.7778133821622034,0.049851224536507206
0.8939650568398566,0.09517051956969558
0.9107499809262226,0.13075455863279162
0.8563668268863965,0.14955367360952163
0.6925459678034637,0.1576104371709773
0.46695658808270396,0.1576104371709773
0.2158541237506676,0.1512321660181582
0.008392462043183033,0.139482719157702
-0.15207141222247655,0.1240405889982452
-0.31320668345159075,0.10591287098496985
-0.4797131303883421,0.08375677119096665
-0.6529335469596399,0.06160067139696345
-0.780498970016022,0.04414435034714275
-0.7952697032120242,0.025345235370412753
-0.7422293430991073,-0.006881818875410085
-0.6572976272220951,-0.04917982757305257
-0.5545738918135347,-0.08744945448996719
-0.37363241016250853,-0.10926985580224306
-0.09030289158464942,-0.12034790569924468
0.2568093385214008,-0.12773327229724574
0.5700160219729915,-0.13344014648661018
0.7838559548332952,-0.13847562371252
0.9040360112916762,-0.14216830701152056
0.9047074082551309,-0.14586099031052108
0.8389105058365758,-0.1525749599450675
0.7029526207370107,-0.15928892957961394
0.46259250782024874,-0.16566720073243305
0.2064545662623026,-0.17070267795834287
-0.005706874189364461,-0.16684214541847867
-0.17019913023575187,-0.15324635690852215
-0.32864881361104753,-0.13713282978561073
-0.4756847486076141,-0.12773327229724574
-0.6421911955443655,-0.11984435797665367
-0.7831845578698405,-0.10994125276569772
-0.8113832303349354,-0.0955062180514229
-0.7556572823682002,-0.07435721370260165
-0.6489051651789121,-0.051529716945143814
-0.5300679026474403,-0.028702220187685965
-0.380346379797055,-0.00016784924086366064
-0.09365987640192262,0.0387731746395056
0.259159227893492,0.08174258030060273
0.5797512779430838,0.11598382543678949
0.8063477531090256,0.13931486991683834
0.9047074082551309,0.15156786449988555
0.9181353475242238,0.15492484931715875
0.8415960936903946,0.15492484931715875
0.6979171435111009,0.15458915083543145
0.47367055771725036,0.14720378423743039
0.22458228427557791,0.13226520180056459
0.006042572671091783,0.11447318226901655
-0.16583504997329668,0.0971847104600595
-0.3091783016708629,0.07704280155642022
-0.4743419546807049,0.04682993820096131
-0.6425268940260929,0.008560311284046692
-0.7710994125276569,-0.0323949034866865
-0.8006408789196613,-0.07335011825741969
-0.7422293430991073,-0.1096055542839704
-0.6663614862287328,-0.1317616540779736
-0.5508812085145341,-0.13780422674906534
-0.37833218890669107,-0.13411154345006485
-0.08761730373083085,-0.13075455863279162
0.2588235294117647,-0.13579003585870145
0.5448386358434424,-0.14888227664606699
0.7650568398565653,-0.16264591439688714
0.900679026474403,-0.1733882658121614
0.9228351262684061,-0.18043793392843518
0.8577096208133058,-0.18513771267261767
0.6891889829861906,-0.18429846646829937
0.4682993820096132,-0.17473105973907072
0.2239108873121233,-0.15593194476234074
0.0157778286411841,-0.1364614328221561
-0.15744258793011368,-0.12437628747997252
-0.3226062409399557,-0.11396963454642556
-0.47904173342488743,-0.10389868009460593
-0.6569619287403676,-0.09013504234378575
-0.7724422064545662,-0.07200732433051041
-0.7969481956206608,-0.05387960631723506
-0.7449149309529259,-0.03172350652323186
-0.6562905317769131,0.0025177386129549098
-0.5575951781490806,0.049515526054779886
-0.3877317463950561,0.09684901197833219
-0.08761730373083085,0.1287403677424277
0.2621805142290379,0.1445181963836118
0.566323338673991,0.14888227664606699
0.7858701457236591,0.14821087968261232
0.9087357900358587,0.1461966887922484
0.9315632867933166,0.14082551308461125
0.8654306858930343,0.1287403677424277
0.7140306706340124,0.11128404669260701
0.46762798504615855,0.09047074082551307
0.2192111085679408,0.07066453040360113
0.010406652933546959,0.048676279850461586
-0.15072861829556725,0.019974059662775615
-0.30783550774395363,-0.015442130159456776
-0.4823987182421607,-0.0520332646677348
-0.6502479591058212,-0.08274967574578469
-0.7818417639429311,-0.10490577553978789
-0.8033264667734799,-0.11967650873579004
-0.7442435339894713,-0.12739757381551842
-0.658304722667277,-0.12773327229724574
-0.5441672388799876,-0.12252994583047226
-0.37799649042496375,-0.12504768444342718
-0.07687495231555656,-0.1351186388952468
0.28635080491340503,-0.15190356298161287
0.5730373083085373,-0.16801709010452429
0.7791561760891126,-0.17540245670252536
0.900679026474403,-0.1777523460746166
0.9248493171587702,-0.1774166475928893
0.8530098420691232,-0.17405966277561608
0.7076523994811933,-0.16264591439688714
0.4682993820096132,-0.1411612115663386
0.21115434500648506,-0.11749446860456245
0.008392462043183033,-0.10121309224078735
-0.16952773327229725,-0.08946364538033112
-0.32126344701304643,-0.0797283894102388
-0.48374151216906996,-0.06865033951323721
-0.658304722667277,-0.04783703364614328
-0.780498970016022,-0.014267185473411156
-0.816083009079118,0.030716411078049892
-0.7583428702220187,0.08174258030060273
-0.6623331044480048,0.12269779507133592
-0.5445029373617151,0.14418249790188448
-0.3763179980163271,0.15291065842679483
-0.10775921263447012,0.1542534523537041
0.24539559014267184,0.15223926146334021
0.5582665751125353,0.1461966887922484
0.7771419851987488,0.1347829404135195
0.8892652780956739,0.11665522240024415
0.9020218204013123,0.09315632867933166
0.8469672693980316,0.06965743495841917
0.6885175860227359,0.048508430609597926
0.46024261844815745,0.026352330815594724
0.21115434500648506,-0.00016784924086366064
0.0050354772259098195,-0.0323949034866865
-0.16046387426565956,-0.06932173647669183
-0.3400625619897764,-0.1040665293354696
-0.49481956206607147,-0.12269779507133592
-0.6599832150759135,-0.12773327229724574
-0.787884336614023,-0.12974746318760969
-0.804669260700389,-0.1317616540779736
-0.7563286793316548,-0.13713282978561073
-0.6609903105210956,-0.14821087968261232
-0.538124666208896,-0.15660334172579538
-0.37094682230868997,-0.15962462806134128
-0.08627450980392155,-0.16600289921416037
0.26016632333867395,-0.1777523460746166
0.5730373083085373,-0.18480201419089035
0.7838559548332952,-0.17640955214770732
0.9040360112916762,-0.15660334172579538
0.9228351262684061,-0.13310444800488286
0.8503242542153048,-0.11313038834210726
0.6989242389562829,-0.1002059967956054
0.45352864881361105,-0.0955062180514229
0.22088960097657745,-0.09214923323414968
0.007385366598001068,-0.08409246967269397
-0.16717784390020599,-0.06831464103150987
-0.32327763790341035,-0.040451667048142216
-0.5025406271457998,0.003860532539864194
-0.6542763408865492,0.057572289616235596
-0.7751277943083849,0.10222018768596933
-0.804669260700389,0.13008316166933698
-0.7549858854047455,0.1420004577706569
-0.6697184710460059,0.14351110093842984
-0.5387960631723507,0.1453574425879301
-0.3816891737239643,0.15022507057297627
-0.08963149462119477,0.1525749599450675
0.2635233081559472,0.14015411612115664
0.5616235599298084,0.11363393606469825
0.7784847791256579,0.09181353475242236
0.8939650568398566,0.07637140459296558
0.9201495384145875,0.05354390783550774
0.8577096208133058,0.017624170290684367
0.703288319218738,-0.02652018005645838
0.4588998245212481,-0.06865033951323721
0.1977264057373922,-0.09953459983215075
0.009063859006637675,-0.11363393606469825
-0.15207141222247655,-0.11984435797665367
-0.32394903486686505,-0.1257190814068818
-0.49112687876707095,-0.12941176470588234
-0.6556191348134585,-0.1317616540779736
-0.7737850003814756,-0.13713282978561073
-0.7999694819562065,-0.14384679942015716
-0.7415579461356527,-0.15190356298161287
-0.6576333257038225,-0.16029602502479592
-0.5347676813916227,-0.1700312809948882
-0.361547264820325,-0.18144502937361714
-0.09298847943846798,-0.18815899900816355
0.2809796292057679,-0.18580910963607233
0.5894865339131761,-0.17070267795834287
0.7912413214312962,-0.14854657816433967
0.8966506446936751,-0.12974746318760969
0.9141069657434958,-0.11396963454642556
0.8617380025940338,-0.10222018768596933
0.716716258487831,-0.09147783627069504
0.48038452735179676,-0.07737850003814756
0.22458228427557791,-0.05119401846341649
0.01846341649500267,-0.01292439154650187
-0.14670023651483938,0.03138780804150454
-0.3175707637140459,0.07838559548332952
-0.48105592431525135,0.11766231784542608
-0.6549477378500038,0.14082551308461125
-0.7862058442053864,0.15022507057297627
-0.8060120546272984,0.15291065842679483
-0.7663996337834744,0.15223926146334021
-0.6489051651789121,0.14552529182879376
-0.5320820935378041,0.13192950331883724
-0.3769893949797818,0.11531242847333485
-0.08358892195010299,0.09835965514610515
0.2628519111924925,0.07570000762951096
0.5797512779430838,0.0481727321278706
0.7919127183947509,0.020813305867093918
0.9094071869993132,-0.012588693064774548
0.9194781414511328,-0.051361867704280154
0.8493171587701227,-0.08476386663614863
0.7133592736705576,-0.10356298161287861
0.46897077897306777,-0.11061264972915236
0.21551842526894024,-0.11665522240024415
0.007721065079728388,-0.12370489051651787
-0.16482795452811475,-0.13075455863279162
-0.32126344701304643,-0.1364614328221561
-0.49985503929198144,-0.13579003585870145
-0.6623331044480048,-0.13662928206301975
-0.7898985275043869,-0.14518959334706644
-0.8050049591821165,-0.15895323109788664
-0.7523002975509269,-0.17204547188525215
-0.6589761196307317,-0.17875944151979858
-0.5347676813916227,-0.1733882658121614
-0.3830319676508736,-0.15626764324406803
-0.09701686121919585,-0.13780422674906534
0.2561379415579461,-0.12639047837033646
0.5703517204547187,-0.11094834821087966
0.7912413214312962,-0.09282063019760432
0.8852368963149463,-0.08140688181887541
0.9073929961089494,-0.07570000762951096
0.8402532997634852,-0.06361486228732739
0.6932173647669185,-0.03692683299000534
0.462928206301976,0.003860532539864194
0.1910124361028458,0.054551003280689715
0.0016784924086366065,0.10524147402151522
-0.16079957274738685,0.14082551308461125
-0.3279774166475929,0.15828183413443195
-0.4844129091325245,0.16231021591515984
-0.6502479591058212,0.16298161287861446
-0.7778133821622034,0.16029602502479592
-0.8073548485542076,0.15223926146334021
-0.7536430914778363,0.14082551308461125
-0.6549477378500038,0.1257190814068818
-0.5374532692454412,0.1057450217441062
-0.36087586785687037,0.08039978637369342
-0.09030289158464942,0.05253681239032577
0.2574807354848554,0.019302662699320974
0.5609521629663539,-0.014267185473411156
0.7731136034180208,-0.04599069199664301
0.8973220416571298,-0.07939269092851148
0.8993362325474935,-0.10557717250324253
0.8402532997634852,-0.11900511177233539
0.7029526207370107,-0.12504768444342718
0.4773632410162509,-0.13125810635538263
0.23028915846494238,-0.13931486991683834
0.027862973983367664,-0.14720378423743039
-0.13998626688029298,-0.15056076905470359
-0.31320668345159075,-0.15291065842679483
-0.4830701152056153,-0.15962462806134128
-0.6475623712520028,-0.17204547188525215
-0.7657282368200198,-0.18413061722743573
-0.7932555123216601,-0.18899824521248187
-0.7563286793316548,-0.18211642633707179
-0.6677042801556421,-0.16566720073243305
-0.5468528267338063,-0.14653238727397572
-0.36423285267414357,-0.1287403677424277
-0.07956054016937514,-0.11245899137865262
0.2574807354848554,-0.09819180590524147
0.5794155794613565,-0.08241397726405737
0.7808346684977492,-0.06596475165941862
0.8885938811322195,-0.04917982757305257
0.9141069657434958,-0.022323949034866862
0.8449530785076678,0.0213168535896849
0.6912031738765545,0.07435721370260165
0.44412909132524603,0.11732661936369877
0.19705500877393756,0.14485389486533912
-0.003692683299000534,0.1560997940032044
-0.17489890897993438,0.15794613565270463
-0.3252918287937743,0.15542839703974973
-0.49784084840161746,0.15223926146334021
-0.6797894254978255,0.1475394827191577
-0.7905699244678416,0.13377584496833753
-0.7925841153582055,0.11262684061951626
-0.7429007400625619,0.09114213778896772
-0.6683756771190966,0.07167162584878309
-0.5300679026474403,0.04783703364614328
-0.35114061188677803,0.01560997940032044
-0.07284657053482871,-0.022491798275730522
0.2843366140230411,-0.06025787747005417
0.5874723430228124,-0.08744945448996719
0.8026550698100251,-0.10121309224078735
0.9033646143282215,-0.11363393606469825
0.9201495384145875,-0.12655832761120012
0.8583810177767605,-0.13579003585870145
0.703288319218738,-0.14283970397497517
0.4656137941557945,-0.1512321660181582
0.19571221484702828,-0.16063172350652322
-0.0016784924086366065,-0.16700999465934235
-0.16214236667429618,-0.17372396429388878
-0.32193484397650113,-0.1807736324101625
-0.49179827573052565,-0.18446631570916305
-0.6703898680094605,-0.18178072785534446
-0.7872129396505684,-0.1696955825131609
-0.804669260700389,-0.15022507057297627
-0.7502861066605631,-0.13109025711451894
-0.6475623712520028,-0.11430533302815289
-0.5334248874647135,-0.09819180590524147
-0.3561760891126879,-0.08543526359960325
-0.07351796749828336,-0.07737850003814756
0.28567940794995034,-0.0694895857175555
0.5985503929198138,-0.04716563668268864
0.8006408789196613,-0.005874723430228122
0.9073929961089494,0.049515526054779886
0.9087357900358587,0.09953459983215075
0.8550240329594874,0.12974746318760969
0.7073167009994659,0.14351110093842984
0.46024261844815745,0.14854657816433967
0.19705500877393756,0.14955367360952163
-0.01913481345845731,0.1445181963836118
-0.16952773327229725,0.1364614328221561
-0.3340199893186847,0.13142595559624626
-0.5018692301823452,0.12370489051651787
-0.6650186923018233,0.1065842679484245
-0.7845273517967497,0.07939269092851148
-0.7979552910658427,0.04682993820096131
-0.7523002975509269,0.016617074845502403
-0.6653543907835507,-0.014938582436865796
-0.5565880827038986,-0.04615854123750667
-0.3884031433585107,-0.0788891432059205
-0.08358892195010299,-0.10691996643015184
0.2514381628137636,-0.12504768444342718
0.5622949568932631,-0.1317616540779736
0.7919127183947509,-0.1304188601510643
0.9060502021820401,-0.13075455863279162
0.9208209353780422,-0.1398184176394293
0.8402532997634852,-0.14988937209124895
0.6959029526207371,-0.1552605477988861
0.46527809567406725,-0.15996032654306858
0.213168535896849,-0.17170977340352483
0.006378271152819104,-0.1874876020447089
-0.16549935149156939,-0.19638361181048294
-0.3226062409399557,-0.18950179293507285
-0.5011978332188906,-0.16600289921416037
-0.6502479591058212,-0.13998626688029298
-0.7724422064545662,-0.11934081025406272
-0.8033264667734799,-0.10490577553978789
-0.7415579461356527,-0.09416342412451362
-0.6636758983749141,-0.08274967574578469
-0.5293965056839857,-0.07234302281223774
-0.36087586785687037,-0.05673304341191729
-0.08090333409628443,-0.028366521705958644
0.27493705653467615,0.017624170290684367
0.5676661326009002,0.07469291218432898
0.7784847791256579,0.12202639810788128
0.9013504234378575,0.14888227664606699
0.9127641718165865,0.15828183413443195
0.841260395208667,0.15727473868925002
0.6854962996871901,0.1535820553902495
0.45218585488670177,0.14804303044174866
0.19302662699320974,0.139482719157702
0.006378271152819104,0.1253833829251545
-0.15072861829556725,0.10457007705806058
-0.3226062409399557,0.08845654993514916
-0.49179827573052565,0.07469291218432898
-0.6844892042420081,0.053208209353780414
-0.7929198138399328,0.014602883955138474
-0.8053406576638438,-0.03440909437705043
-0.7616998550392919,-0.07536430914778362
-0.6730754558632792,-0.10222018768596933
-0.554909590295262,-0.11699092088197145
-0.361547264820325,-0.12269779507133592
-0.05706874189364462,-0.12336919203479056
0.2809796292057679,-0.12370489051651787
0.5767299916075379,-0.1279011215381094
0.7835202563515677,-0.1398184176394293
0.9047074082551309,-0.1525749599450675
0.9181353475242238,-0.16029602502479592
0.8536812390325781,-0.16466010528725106
0.6985885404745555,-0.17070267795834287
0.46225680933852137,-0.17943083848325322
0.2064545662623026,-0.18480201419089035
-0.0006713969634546426,-0.17959868772411688
-0.1594567788204776,-0.16398870832379644
-0.3279774166475929,-0.139482719157702
-0.49649805447470813,-0.11178759441519796
-0.6609903105210956,-0.0908064393072404
-0.7898985275043869,-0.07939269092851148
-0.8006408789196613,-0.07469291218432898
-0.7442435339894713,-0.06730754558632791
-0.6542763408865492,-0.04716563668268864
-0.5307392996108949,-0.006881818875410085
-0.360540169375143,0.042801556420233464
-0.06210421911955444,0.08577096208133059
0.29440756847486077,0.11799801632715344
0.5931792172121766,0.14283970397497517
0.7959411001754787,0.1586175326161593
0.9033646143282215,0.16499580376897838
0.9208209353780422,0.16231021591515984
0.8483100633249409,0.15022507057297627
0.6965743495841917,0.13411154345006485
0.45755703059433883,0.11396963454642556
0.19839780270084686,0.09584191653315023
-0.006042572671091783,0.0772106507972839
-0.18429846646829937,0.05354390783550774
-0.3226062409399557,0.02333104448004883
-0.4884412909132525,-0.011581597619592583
-0.6596475165941862,-0.048844129091325246
-0.7778133821622034,-0.08543526359960325
-0.7952697032120242,-0.11044480048828872
-0.731486991683833,-0.12303349355306323
-0.6435339894712748,-0.12974746318760969
-0.5334248874647135,-0.1317616540779736
-0.36826123445487147,-0.13444724193179217
-0.08761730373083085,-0.14418249790188448
0.27426565957122145,-0.1552605477988861
0.5750514991989013,-0.16163881895170518
0.7862058442053864,-0.16533150225070573
0.8993362325474935,-0.17355611505302507
0.9060502021820401,-0.18480201419089035
0.8362249179827573,-0.19084458686198216
0.6938887617303731,-0.18278782330052643
0.47367055771725036,-0.15928892957961394
0.20108339055466543,-0.13780422674906534
-0.0050354772259098195,-0.12639047837033646
-0.16046387426565956,-0.11665522240024415
-0.30783550774395363,-0.0988632028686961
-0.46024261844815745,-0.0788891432059205
-0.6452124818799114,-0.062272068360418105
-0.7791561760891126,-0.04582284275577936
-0.8023193713282979,-0.024338139925230793
-0.7546501869230182,0.011581597619592583
-0.6630045014114595,0.06428625925078202
-0.538124666208896,0.11245899137865262
-0.37161821927214467,0.14283970397497517
-0.08493171587701229,0.1576104371709773
0.27359426260776687,0.16549935149156939
0.5690089265278097,0.16466010528725106
0.7781490806439306,0.15660334172579538
0.9047074082551309,0.1445181963836118
0.9120927748531319,0.12605477988860914
0.8469672693980316,0.10591287098496985
0.6925459678034637,0.08946364538033112
0.45151445792324707,0.07267872129396505
0.22525368123903253,0.0481727321278706
0.004699778744182497,0.010574502174410621
-0.1722133211261158,-0.0323949034866865
-0.32898451209277485,-0.06865033951323721
-0.4971694514381629,-0.09567406729228656
-0.6542763408865492,-0.10893415732051576
-0.7872129396505684,-0.11447318226901655
-0.8167544060425727,-0.12034790569924468
-0.7489433127336537,-0.129579613946746
-0.6515907530327305,-0.1364614328221561
-0.5347676813916227,-0.14334325169756618
-0.37094682230868997,-0.15391775387197681
-0.074189364461738,-0.16348516060120546
0.2635233081559472,-0.1733882658121614
0.5743801022354467,-0.18278782330052643
0.7999694819562065,-0.1874876020447089
0.9020218204013123,-0.18211642633707179
0.9261921110856793,-0.16818493934538795
0.8516670481422142,-0.15458915083543145
0.6975814450293737,-0.14317540245670252
0.4642710002288853,-0.13075455863279162
0.20376897840848401,-0.11564812695506219
0.009063859006637675,-0.0988632028686961
-0.17926298924238954,-0.08140688181887541
-0.35382619974059665,-0.06462195773250935
-0.5099259937438011,-0.044480048828870064
-0.6717326619363697,-0.014267185473411156
-0.7791561760891126,0.030380712596322572
-0.7925841153582055,0.0800640878919661
-0.7449149309529259,0.11934081025406272
-0.6546120393682765,0.1445181963836118
-0.5468528267338063,0.15928892957961394
-0.37161821927214467,0.16298161287861446
-0.06613260090028229,0.1569390402075227
0.29474326695658803,0.14552529182879376
0.5690089265278097,0.13109025711451894
0.7851987487602046,0.11665522240024415
0.9127641718165865,0.10440222781719691
0.9204852368963149,0.08677805752651253
0.8694590676737621,0.06327916380560006
0.6871747920958267,0.030045014114595252
0.43472953383688107,-0.011581597619592583
0.1782558937972076,-0.053208209353780414
-0.019806210421911954,-0.0861066605630579
-0.16952773327229725,-0.1065842679484245
-0.3340199893186847,-0.11564812695506219
-0.49314106965743487,-0.11900511177233539
-0.6677042801556421,-0.11766231784542608
-0.7912413214312962,-0.12001220721751735
-0.8019836728465705,-0.1284046692607004
-0.7445792324711985,-0.1398184176394293
-0.6475623712520028,-0.1525749599450675
-0.5468528267338063,-0.16466010528725106
-0.37027542534523533,-0.1790951400015259
-0.0775463492790112,-0.18614480811779963
0.2756084534981307,-0.18245212481879908
0.5797512779430838,-0.1696955825131609
0.7798275730525673,-0.15593194476234074
0.8852368963149463,-0.14216830701152056
0.8936293583581294,-0.12504768444342718
0.8321965362020294,-0.10641641870756083
0.6898603799496451,-0.0891279468986038
0.436743724727245,-0.07200732433051041
0.19705500877393756,-0.056061646448462656
0.0050354772259098195,-0.04078736552986953
-0.1722133211261158,-0.01628137636377508
-0.3279774166475929,0.0213168535896849
-0.4844129091325245,0.06495765621423667
-0.6542763408865492,0.10725566491187914
-0.7751277943083849,0.14082551308461125
-0.7845273517967497,0.15828183413443195
-0.714702067597467,0.16163881895170518
-0.6129854276340886,0.1542534523537041
-0.49246967269398023,0.14351110093842984
-0.3387197680628672,0.12941176470588234
-0.06277561608300908,0.11329823758297093
0.2843366140230411,0.09835965514610515
0.5985503929198138,0.08039978637369342
0.7979552910658427,0.062272068360418105
0.8838941023880368,0.041123064011596856
0.9060502021820401,0.009231708247501335
0.8285038529030289,-0.028702220187685965
0.6703898680094605,-0.06730754558632791
0.4307011520561531,-0.09953459983215075
0.17489890897993438,-0.11967650873579004
-0.01913481345845731,-0.13075455863279162
-0.18362706950484473,-0.13008316166933698
-0.3377126726176852,-0.12639047837033646
-0.4797131303883421,-0.1304188601510643
-0.6341344319829099,-0.14300755321583886
-0.7445792324711985,-0.1586175326161593
-0.7657282368200198,-0.1688563363088426
-0.7200732433051041,-0.17540245670252536
-0.620706492713817,-0.18278782330052643
-0.49314106965743487,-0.1901731898985275
-0.33066300450141145,-0.1901731898985275
-0.058075837338826576,-0.17573815518425268
0.2910505836575875,-0.15223926146334021
0.5784084840161745,-0.1317616540779736
0.7677424277103838,-0.11799801632715344
0.8664377813382161,-0.10759136339360646
0.8751659418631266,-0.09349202716105898
0.8073548485542076,-0.0780498970016022
0.6401770046540016,-0.061936369878690785
0.4152590218966964,-0.04145876249332417
0.1718776226443885,-0.007721065079728388
-0.03189135576409552,0.04213015945677882
-0.18564126039520865,0.0971847104600595
-0.35281910429541463,0.13679713130388343
-0.5011978332188906,0.15626764324406803
-0.6495765621423666,0.16633859769588769
-0.7459220263981079,0.1710383764400702
-0.7496147096971084,0.16902418554970625
-0.7026169222552834,0.16063172350652322
-0.6139925230792705,0.1468680857557031
-0.5038834210727092,0.12773327229724574
-0.3279774166475929,0.10473792629892423
-0.044647898069733724,0.08375677119096665
0.2870222018768597,0.06512550545510032
0.5807583733882657,0.0387731746395056
0.7637140459296559,0.0011749446860456242
0.8711375600823987,-0.040451667048142216
0.8912794689860379,-0.07939269092851148
0.8053406576638438,-0.10775921263447012
0.6455481803616389,-0.12135500114442664
0.40183108262760353,-0.12471198596169988
0.16348516060120546,-0.1284046692607004
-0.02719157701991302,-0.13444724193179217
-0.17959868772411688,-0.14132906080720226
-0.3313344014648661,-0.15324635690852215
-0.4904554818036164,-0.16600289921416037
-0.6361486228732738,-0.17573815518425268
-0.7502861066605631,-0.18345922026398107
-0.7623712520027466,-0.18715190356298161
-0.7237659266041045,-0.18480201419089035
-0.6415197985809108,-0.17808804455634394
-0.5146257724879835,-0.1696955825131609
-0.34946211947814143,-0.1594567788204776
-0.054047455558098714,-0.14216830701152056
0.29642175936522464,-0.11967650873579004
0.575722896162356,-0.10171663996337835
0.7610284580758372,-0.08677805752651253
0.84965285725185,-0.07301441977569237
0.8738231479362172,-0.05421530479896238
0.8194399938963911,-0.02400244144350347
0.6562905317769131,0.02265964751659419
0.41458762493324175,0.07402151522087433
0.17019913023575187,0.11128404669260701
-0.014770733196002136,0.13310444800488286
-0.16482795452811475,0.14804303044174866
-0.3215991454947737,0.1569390402075227
-0.4763561455710689,0.16063172350652322
-0.6317845426108185,0.1576104371709773
-0.7281300068665598,0.1475394827191577
-0.7455863279163805,0.13008316166933698
-0.6992599374380102,0.10859845883878842
-0.6092927443350882,0.08812085145342184
-0.4951552605477989,0.06965743495841917
-0.32394903486686505,0.049515526054779886
-0.054047455558098714,0.02333104448004883
0.29340047302967875,-0.013931486991683832
0.5844510566872663,-0.05824368657969024
0.7754634927901122,-0.09416342412451362
0.8865796902418555,-0.11094834821087966
0.8751659418631266,-0.11648737315938049
0.7999694819562065,-0.11799801632715344
0.6643472953383688,-0.12252994583047226
0.42398718242160677,-0.13276874952315554
0.17288471808957045,-0.14720378423743039
-0.017792019531548024,-0.15996032654306858
-0.16147096971084152,-0.16734569314106965
-0.3252918287937743,-0.17204547188525215
-0.4743419546807049,-0.17875944151979858
-0.639505607690547,-0.18446631570916305
-0.7603570611123827,-0.18144502937361714
-0.7650568398565653,-0.16868848706797895
-0.7261158159761959,-0.14988937209124895
-0.6341344319829099,-0.13243305104142825
-0.5186541542687114,-0.11833371480888075
-0.3558403906309605,-0.10691996643015184
-0.05337605859464408,-0.09047074082551307
0.27359426260776687,-0.07200732433051041
0.5763942931258106,-0.05387960631723506
0.7865415426871137,-0.02887006942854963
0.8765087357900359,0.005874723430228122
0.8825513084611275,0.048508430609597926
0.8086976424811169,0.09097428854810408
0.6656900892652781,0.12504768444342718
0.4233157854581521,0.147875181200885
0.18463416495002669,0.15828183413443195
-0.022491798275730522,0.16096742198825056
-0.19504081788357364,0.15828183413443195
-0.34039826047150373,0.14821087968261232
-0.4971694514381629,0.13377584496833753
-0.646890974288548,0.11799801632715344
-0.7724422064545662,0.10255588616769665
-0.7912413214312962,0.08845654993514916
-0.7308155947203783,0.06932173647669183
-0.6408484016174563,0.03994811932555123
-0.5065690089265278,0.0025177386129549098
-0.3346913862821393,-0.04145876249332417
-0.064789806973373,-0.08039978637369342
0.278965438315404,-0.10389868009460593
0.5824368657969023,-0.11296253910124363
0.7959411001754787,-0.11447318226901655
0.9053788052185856,-0.11665522240024415
0.9087357900358587,-0.12303349355306323
0.8264896620126649,-0.1317616540779736
0.6744182497901884,-0.14401464866102082
0.44480048828870067,-0.1586175326161593
0.18899824521248187,-0.17607385366598
-0.0030212863355458916,-0.1884946974898909
-0.1594567788204776,-0.19235523002975508
-0.3293202105745021,-0.19134813458457312
-0.4985122453650721,-0.18211642633707179
-0.6656900892652781,-0.16331731136034178
-0.7717708094911115,-0.14518959334706644
-0.7892271305409322,-0.13444724193179217
-0.740886549172198,-0.12739757381551842
-0.6448767833981841,-0.11699092088197145
-0.5414816510261692,-0.10087739375906005
-0.3548332951857786,-0.08207827878233005
-0.06277561608300908,-0.061936369878690785
0.27090867475394825,-0.037094682230869
0.566323338673991,-0.0015106431677729458
0.7784847791256579,0.04515144579232471
0.8906080720225832,0.09047074082551307
0.8879224841687647,0.12034790569924468
0.816083009079118,0.13679713130388343
0.6626688029297322,0.1492179751277943
0.42398718242160677,0.15492484931715875
0.18228427557793545,0.14888227664606699
-0.011749446860456245,0.13411154345006485
-0.15274280918593117,0.11766231784542608
-0.31454947737850003,0.09970244907301441
-0.48374151216906996,0.08039978637369342
-0.6515907530327305,0.06764324406805522
-0.7633783474479287,0.0528725108720531
-0.7710994125276569,0.02333104448004883
-0.7418936446173799,-0.017624170290684367
-0.6536049439230944,-0.060593575951781484
-0.528725108720531,-0.09785610742351414
-0.3565117875944152,-0.11799801632715344
-0.06210421911955444,-0.11984435797665367
0.28836499580376895,-0.11464103150988021
0.583108262760357,-0.11564812695506219
0.7905699244678416,-0.12101930266269931
0.8966506446936751,-0.12605477988860914
0.8953078507667659,-0.13461509117265583
0.8248111696040283,-0.1492179751277943
0.6787823300526435,-0.16466010528725106
0.435736629282063,-0.17808804455634394
0.18765545128557257,-0.19034103913939115
-0.011078049897001601,-0.18983749141680015
-0.17120622568093385,-0.1733882658121614
-0.3068284122987716,-0.15458915083543145
-0.481727321278706,-0.13780422674906534
-0.6529335469596399,-0.12639047837033646
-0.7590142671854733,-0.11061264972915236
-0.7724422064545662,-0.09147783627069504
-0.712687876707103,-0.07536430914778362
-0.6354772259098191,-0.06160067139696345
-0.5206683451590752,-0.044815747310597384
-0.3450980392156862,-0.013931486991683832
-0.055390249485008015,0.03138780804150454
0.2829938200961318,0.07905699244678416
0.5763942931258106,0.11665522240024415
0.7831845578698405,0.14048981460288396
0.8872510872053101,0.1535820553902495
0.8899366750591287,0.16231021591515984
0.8140688181887541,0.16600289921416037
0.6744182497901884,0.16147096971084152
0.4528572518501564,0.14854657816433967
0.18765545128557257,0.12941176470588234
-0.015106431677729458,0.10826276035706112
-0.16952773327229725,0.08241397726405737
-0.32394903486686505,0.05354390783550774
-0.4750133516441596,0.02400244144350347
-0.6536049439230944,-0.009567406729228655
-0.7687495231555658,-0.04615854123750667
-0.7791561760891126,-0.08090333409628443
-0.7298084992751963,-0.10591287098496985
-0.6344701304646372,-0.12303349355306323
-0.5179827573052568,-0.13713282978561073
-0.33334859235523,-0.1398184176394293
-0.04800488288700694,-0.13394369420920116
0.2813153276874952,-0.1351186388952468
0.5609521629663539,-0.14518959334706644
0.7687495231555658,-0.15593194476234074
0.8859082932784007,-0.16398870832379644
0.8859082932784007,-0.17305256733043411
0.8133974212252995,-0.18211642633707179
0.6596475165941862,-0.18144502937361714
0.42532997634851605,-0.16835278858625158
0.19369802395666438,-0.15056076905470359
-0.003692683299000534,-0.13579003585870145
-0.1725490196078431,-0.12672617685206378
-0.32327763790341035,-0.11799801632715344
-0.4877698939497978,-0.10289158464942397
-0.6368200198367284,-0.08241397726405737
-0.7570000762951096,-0.06596475165941862
-0.7751277943083849,-0.053208209353780414
-0.7267872129396507,-0.028366521705958644
-0.6448767833981841,0.017288471808957043
-0.5206683451590752,0.07167162584878309
-0.3440909437705043,0.11732661936369877
-0.043305104142824444,0.1461966887922484
0.2823224231326772,0.15828183413443195
0.5649805447470816,0.16029602502479592
0.759685664148928,0.15727473868925002
0.878858625162127,0.1535820553902495
0.8979934386205843,0.1508964675364309
0.8053406576638438,0.1398184176394293
0.6549477378500038,0.11732661936369877
0.42197299153124274,0.09114213778896772
0.1893339436942092,0.07083237964446479
0.0050354772259098195,0.05354390783550774
-0.1802700846875715,0.02937361715114061
-0.33066300450141145,-0.006546120393682764
-0.4844129091325245,-0.050522621499961846
-0.6462195773250935,-0.09013504234378575
-0.7536430914778363,-0.11296253910124363
-0.7700923170824749,-0.12471198596169988
-0.7133592736705576,-0.13109025711451894
-0.6341344319829099,-0.13444724193179217
-0.5132829785610742,-0.13545433737697413
-0.33334859235523,-0.13579003585870145
-0.044647898069733724,-0.13914702067597465
0.2984359502555886,-0.15190356298161287
0.5656519417105363,-0.16868848706797895
0.7590142671854733,-0.18312352178225372
0.8657663843747615,-0.1874876020447089
0.878858625162127,-0.17875944151979858
0.8214541847867551,-0.16617074845502405
0.6515907530327305,-0.15223926146334021
0.4213015945677882,-0.13780422674906534
0.19034103913939115,-0.12303349355306323
-0.0030212863355458916,-0.1065842679484245
-0.1641565575646601,-0.0908064393072404
-0.31992065308613715,-0.07570000762951096
-0.47367055771725036,-0.061936369878690785
-0.6408484016174563,-0.042465857938506144
-0.7509575036240176,-0.007553215838864729
-0.7637140459296559,0.04213015945677882
-0.714702067597467,0.09382772564278628
-0.6314488441290912,0.1287403677424277
-0.5230182345311665,0.14216830701152056
-0.3400625619897764,0.14653238727397572
-0.060761425192645144,0.14988937209124895
0.28635080491340503,0.1555962462806134
0.5817654688334477,0.15626764324406803
0.7630426489662012,0.14518959334706644
0.8771801327534905,0.12303349355306323
0.8724803540093079,0.09785610742351414
0.8026550698100251,0.07872129396505684
0.6630045014114595,0.057572289616235596
0.42398718242160677,0.02668802929732204
0.18631265735866331,-0.009231708247501335
-0.01376363775082017,-0.044480048828870064
-0.1641565575646601,-0.07603570611123828
-0.31186388952468147,-0.10691996643015184
-0.47199206530861376,-0.13008316166933698
-0.6442053864347295,-0.14048981460288396
-0.7771419851987488,-0.14082551308461125
-0.7851987487602046,-0.139482719157702
-0.724101625085832,-0.1411612115663386
-0.6220492866407263,-0.1475394827191577
-0.517311360341802,-0.1552605477988861
-0.36087586785687037,-0.16398870832379644
-0.06109712367437248,-0.17607385366598
0.28500801098649575,-0.18983749141680015
0.5777370870527199,-0.19974059662775617
0.7670710307469292,-0.1935301747158007
0.8771801327534905,-0.1733882658121614
0.8818799114976732,-0.14988937209124895
0.7986266880292973,-0.13209735255970093
0.6562905317769131,-0.11766231784542608
0.41660181582360567,-0.10289158464942397
0.15811398489356832,-0.08694590676737621
-0.023834592202639806,-0.07267872129396505
-0.18094148165102614,-0.058915083543144876
-0.33200579842832073,-0.03407339589532311
-0.4763561455710689,0.00788891432059205
-0.6260776684214542,0.060593575951781484
-0.7549858854047455,0.1079270618753338
-0.7791561760891126,0.13914702067597465
-0.7100022888532844,0.1555962462806134
-0.6233920805676355,0.16063172350652322
-0.4985122453650721,0.15962462806134128
-0.33334859235523,0.15828183413443195
-0.060090028229190504,0.1535820553902495
0.2829938200961318,0.13914702067597465
0.5723659113450827,0.11195544365606165
0.7650568398565653,0.08375677119096665
0.8751659418631266,0.062272068360418105
0.8939650568398566,0.04011596856641489
0.8268253604943924,0.010910200656137941
0.6623331044480048,-0.02584878309300374
0.4186160067139696,-0.0639505607690547
0.17758449683375294,-0.09147783627069504
-0.01846341649500267,-0.10507362478065153
-0.1816128786144808,-0.11195544365606165
-0.3313344014648661,-0.12034790569924468
-0.4844129091325245,-0.13142595559624626
-0.6374914168001832,-0.14250400549324788
-0.7455863279163805,-0.14988937209124895
-0.7549858854047455,-0.15324635690852215
-0.7046311131456473,-0.15660334172579538
-0.6099641412985427,-0.16348516060120546
-0.5025406271457998,-0.17473105973907072
-0.31924925612268257,-0.18614480811779963
-0.02584878309300374,-0.18715190356298161
0.2907148851758602,-0.17557030594338902
0.5790798809796293,-0.15744258793011368
0.7690852216372929,-0.1398184176394293
0.8667734798199436,-0.12370489051651787
0.8825513084611275,-0.10926985580224306
0.8080262455176623,-0.10121309224078735
0.646890974288548,-0.09349202716105898
0.39713130388342105,-0.08073548485542076
0.17154192416266117,-0.053208209353780414
-0.009063859006637675,-0.012252994583047227
-0.16549935149156939,0.03743038071259632
-0.32059205004959185,0.0882887006942855
-0.49246967269398023,0.12739757381551842
-0.6442053864347295,0.14888227664606699
-0.7563286793316548,0.1576104371709773
-0.7623712520027466,0.15996032654306858
-0.7073167009994659,0.1576104371709773
-0.6153353170061798,0.1512321660181582
-0.4991836423285267,0.14216830701152056
-0.3387197680628672,0.13142595559624626
-0.043305104142824444,0.11564812695506219
0.2907148851758602,0.09214923323414968
0.5676661326009002,0.06562905317769131
0.7590142671854733,0.04011596856641489
0.8506599526970321,0.008560311284046692
0.8684519722285801,-0.03105210955977722
0.8053406576638438,-0.06697184710460058
0.6374914168001832,-0.09483482108796826
0.3944457160296025,-0.11262684061951626
0.1487144274052033,-0.12034790569924468
-0.01913481345845731,-0.12471198596169988
-0.17019913023575187,-0.13125810635538263
-0.31320668345159075,-0.13847562371252
-0.46762798504615855,-0.14384679942015716
-0.6267490653849087,-0.14737163347829402
-0.7341725795376516,-0.1535820553902495
-0.7563286793316548,-0.16432440680552376
-0.6868390936140993,-0.18094148165102614
-0.5951934081025406,-0.194369420920119
-0.4844129091325245,-0.19621576256961928
-0.32730601968413825,-0.1807736324101625
-0.05337605859464408,-0.1542534523537041
0.305149919890135,-0.12974746318760969
0.5864652475776303,-0.11430533302815289
0.7623712520027466,-0.1032272831311513
0.8664377813382161,-0.09349202716105898
0.8697947661554895,-0.07872129396505684
0.8107118333714809,-0.060593575951781484
0.6495765621423666,-0.03373769741359579
0.4038452735179675,0.004364080262455177
0.1708705271992065,0.05354390783550774
-0.03121995880064088,0.10389868009460593
-0.19638361181048294,0.14216830701152056
-0.3508049134050507,0.16298161287861446
-0.4884412909132525,0.16600289921416037
-0.6341344319829099,0.1569390402075227
-0.7459220263981079,0.14586099031052108
-0.7744563973449301,0.13864347295338367
-0.7227588311589227,0.13142595559624626
-0.6106355382619973,0.11631952391851681
-0.5011978332188906,0.09919890135042343
-0.3400625619897764,0.08207827878233005
-0.05304036011291676,0.05488670176241703
0.2809796292057679,0.020309758144502935
0.5656519417105363,-0.017624170290684367
0.7623712520027466,-0.05522240024414436
0.8577096208133058,-0.08845654993514916
0.8630807965209428,-0.11094834821087966
0.7915770199130235,-0.12370489051651787
0.6455481803616389,-0.1317616540779736
0.41055924315251385,-0.13847562371252
0.17154192416266117,-0.1411612115663386
-0.021820401312275882,-0.14048981460288396
-0.17557030594338902,-0.1406576638437476
-0.3226062409399557,-0.1492179751277943
-0.4743419546807049,-0.16432440680552376
-0.619699397268635,-0.1807736324101625
-0.7395437552452887,-0.18950179293507285
-0.7549858854047455,-0.18480201419089035
-0.7079880979629205,-0.1708705271992065
-0.6113069352254519,-0.15458915083543145
-0.4750133516441596,-0.13579003585870145
-0.32126344701304643,-0.11497672999160755
-0.0473334859235523,-0.0971847104600595
0.28836499580376895,-0.0844281681544213
0.5669947356374456,-0.07267872129396505
0.7724422064545662,-0.05874723430228122
0.8603952086671244,-0.04313725490196078
0.8570382238498512,-0.01628137636377508
0.7838559548332952,0.0260166323338674
0.6361486228732738,0.07435721370260165
0.3998168917372396,0.11598382543678949
0.15878538185702296,0.1461966887922484
-0.020813305867093918,0.15962462806134128
-0.1816128786144808,0.15996032654306858
-0.33066300450141145,0.15458915083543145
-0.48374151216906996,0.14552529182879376
-0.6368200198367284,0.1347829404135195
-0.7321583886472877,0.12202639810788128
-0.7549858854047455,0.10591287098496985
-0.710673685816739,0.08308537422751203
-0.6146639200427252,0.058915083543144876
-0.5038834210727092,0.035416189822232394
-0.3226062409399557,0.004531929503318838
-0.035919737544823374,-0.033234149691004806
0.29306477454795143,-0.07066453040360113
0.5602807660028991,-0.09987029831387809
0.7623712520027466,-0.11732661936369877
0.8603952086671244,-0.12974746318760969
0.8577096208133058,-0.13847562371252
0.7885557335774777,-0.14183260852979326
0.6267490653849087,-0.14384679942015716
0.3931029221026932,-0.1475394827191577
0.16482795452811475,-0.15324635690852215
-0.021820401312275882,-0.15928892957961394
-0.16079957274738685,-0.166674296177615
-0.3246204318303197,-0.17674525062943464
-0.4682993820096132,-0.18413061722743573
-0.6193636987869078,-0.1837949187457084
-0.7355153734645609,-0.17154192416266117
-0.7200732433051041,-0.15223926146334021
-0.6784466315709163,-0.13545433737697413
-0.6089570458533609,-0.12034790569924468
-0.49582665751125343,-0.10356298161287861
-0.3293202105745021,-0.08509956511787593
-0.041962310215915156,-0.07267872129396505
0.29776455329213397,-0.06327916380560006
0.5817654688334477,-0.043472953383688104
0.7677424277103838,-0.006881818875410085
0.8583810177767605,0.042801556420233464
0.8644235904478524,0.0891279468986038
0.7959411001754787,0.12001220721751735
0.6415197985809108,0.1364614328221561
0.3890745403219653,0.147875181200885
0.15677119096665904,0.1542534523537041
-0.029877164873731592,0.15022507057297627
-0.18362706950484473,0.1414969100480659
-0.31622796978713663,0.13075455863279162
-0.47299916075379567,0.11464103150988021
-0.6240634775310901,0.09416342412451362
-0.7288014038300145,0.07368581673914701
-0.7422293430991073,0.051865415426871134
-0.6905317769130999,0.01846341649500267
-0.6173495078965439,-0.019974059662775615
-0.49582665751125343,-0.05421530479896238
-0.33200579842832073,-0.0861066605630579
-0.054047455558098714,-0.10759136339360646
0.28635080491340503,-0.11699092088197145
0.5622949568932631,-0.11900511177233539
0.7516289005874722,-0.11866941329060808
0.8375677119096665,-0.12437628747997252
0.8489814602883955,-0.13327229724574652
0.7902342259861143,-0.14283970397497517
0.6321202410925459,-0.1535820553902495
0.40115968566414895,-0.16466010528725106
0.15542839703974973,-0.17607385366598
-0.02584878309300374,-0.18614480811779963
-0.17892729076066224,-0.18950179293507285
-0.3387197680628672,-0.18110933089188982
-0.4783703364614328,-0.16566720073243305
-0.6435339894712748,-0.14485389486533912
-0.7395437552452887,-0.12236209658960862
-0.7328297856107423,-0.10423437857633323
-0.6851606012054626,-0.08979934386205844
-0.5955291065842679,-0.07469291218432898
-0.48542000457770657,-0.05857938506141757
-0.3091783016708629,-0.035416189822232394
-0.03927672236209659,-0.004196231021591517
0.2937361715114062,0.03843747615777828
0.5784084840161745,0.08778515297169451
0.7751277943083849,0.12722972457465478
0.8697947661554895,0.14955367360952163
0.8573739223315785,0.15962462806134128
0.7838559548332952,0.15928892957961394
0.6334630350194552,0.1512321660181582
0.41055924315251385,0.14384679942015716
0.1708705271992065,0.13847562371252
-0.03256275272755016,0.12605477988860914
-0.18295567254139009,0.10423437857633323
-0.3293202105745021,0.08342107270923933
-0.47904173342488743,0.06562905317769131
-0.6166781109330892,0.04078736552986953
-0.7308155947203783,0.004364080262455177
-0.731486991683833,-0.036423285267414354
-0.6891889829861906,-0.07469291218432898
-0.6166781109330892,-0.10154879072251469
-0.48407721065079723,-0.11027695124742502
-0.30112153810940717,-0.1096055542839704
-0.012420843823910887,-0.10893415732051576
0.2950789654383154,-0.11396963454642556
0.564309147783627,-0.12639047837033646
0.7536430914778363,-0.139482719157702
0.8536812390325781,-0.15408560311284045
0.8509956511787593,-0.16633859769588769
0.759685664148928,-0.175066758220798
0.6277561608300908,-0.18278782330052643
0.3984740978103304,-0.18580910963607233
0.15207141222247655,-0.18345922026398107
-0.029877164873731592,-0.17640955214770732
-0.18429846646829937,-0.16398870832379644
-0.3259632257572289,-0.14518959334706644
-0.48407721065079723,-0.1232013427939269
-0.639505607690547,-0.10255588616769665
-0.7254444190127411,-0.08677805752651253
-0.7308155947203783,-0.0800640878919661
-0.6905317769130999,-0.07284657053482871
-0.6099641412985427,-0.04917982757305257
-0.4971694514381629,-0.007553215838864729
-0.31589227130540926,0.042801556420233464
-0.01846341649500267,0.092484931715877
0.30582131685358965,0.13075455863279162
0.5700160219729915,0.1542534523537041
0.7650568398565653,0.16197451743343252
0.8456244754711221,0.1576104371709773
0.84965285725185,0.1475394827191577
0.7831845578698405,0.13612573434042877
0.6210421911955444,0.12471198596169988
0.3890745403219653,0.11128404669260701
0.15274280918593117,0.09365987640192262
-0.02719157701991302,0.07066453040360113
-0.17758449683375294,0.04615854123750667
-0.32394903486686505,0.014602883955138474
-0.46091401541161203,-0.022995345998321506
-0.6247348744945449,-0.06126497291523613
-0.7267872129396507,-0.09433127336537728
-0.7257801174944686,-0.11229114213778896
-0.6717326619363697,-0.11967650873579004
-0.5972075989929045,-0.11866941329060808
-0.4877698939497978,-0.11497672999160755
-0.3175707637140459,-0.11934081025406272
-0.035248340581368734,-0.12941176470588234
0.307164110780499,-0.13998626688029298
0.5797512779430838,-0.15106431677729457
0.7536430914778363,-0.16147096971084152
0.8590524147402151,-0.17170977340352483
0.8570382238498512,-0.18010223544670784
0.7784847791256579,-0.18547341115434499
0.6307774471656367,-0.18144502937361714
0.38638895246814675,-0.16868848706797895
0.15274280918593117,-0.15291065842679483
-0.04061951628900587,-0.13579003585870145
-0.19504081788357364,-0.11900511177233539
-0.33200579842832073,-0.10087739375906005
-0.4797131303883421,-0.07939269092851148
-0.6368200198367284,-0.05589379720759898
-0.7482719157701991,-0.03440909437705043
-0.7415579461356527,-0.010238803692683297
-0.686503395132372,0.026352330815594724
-0.6005645838101776,0.07570000762951096
-0.49314106965743487,0.12437628747997252
-0.3279774166475929,0.1555962462806134
-0.025177386129549097,0.16566720073243305
0.30112153810940717,0.16633859769588769
0.5723659113450827,0.16348516060120546
0.759685664148928,0.1542534523537041
0.8456244754711221,0.139482719157702
0.8402532997634852,0.1240405889982452
0.7549858854047455,0.1096055542839704
0.5972075989929045,0.09651331349660487
0.37027542534523533,0.08039978637369342
0.1376363775082017,0.052201113908598454
-0.043305104142824444,0.00788891432059205
-0.19235523002975508,-0.03843747615777828
-0.33066300450141145,-0.07469291218432898
-0.4756847486076141,-0.09852750438696878
-0.6314488441290912,-0.11094834821087966
-0.7341725795376516,-0.11229114213778896
-0.74692912184329,-0.11296253910124363
-0.6804608224612801,-0.12135500114442664
-0.5898222323949035,-0.1317616540779736
-0.47367055771725036,-0.13847562371252
-0.30380712596322573,-0.14653238727397572
-0.024505989166094453,-0.15593194476234074
0.3175707637140459,-0.1688563363088426
0.5659876401922636,-0.18144502937361714
0.7489433127336537,-0.1874876020447089
0.8560311284046692,-0.18010223544670784
0.8523384451056687,-0.16533150225070573
0.7741206988632028,-0.1508964675364309
0.6032501716639962,-0.13579003585870145
0.38974593728541995,-0.11866941329060808
0.16214236667429618,-0.1032272831311513
-0.027862973983367664,-0.09047074082551307
-0.18194857709620815,-0.07939269092851148
-0.33334859235523,-0.06596475165941862
-0.46897077897306777,-0.04414435034714275
-0.6045929655909056,-0.009063859006637675
-0.7019455252918287,0.03743038071259632
-0.7200732433051041,0.08493171587701229
-0.6744182497901884,0.12068360418097199
-0.5713588158999007,0.14418249790188448
-0.471320668345159,0.15492484931715875
-0.3024643320363164,0.15492484931715875
-0.022156099794003202,0.14552529182879376
0.307164110780499,0.13411154345006485
0.5703517204547187,0.1240405889982452
0.7301441977569237,0.11195544365606165
0.8415960936903946,0.0971847104600595
0.8483100633249409,0.07737850003814756
0.7663996337834744,0.05421530479896238
0.6160067139696346,0.025009536888685433
0.3823605706874189,-0.014938582436865796
0.15274280918593117,-0.057572289616235596
-0.029877164873731592,-0.09231708247501334
-0.18832684824902723,-0.11296253910124363
-0.33200579842832073,-0.12387273975738157
-0.4813916227969787,-0.13075455863279162
-0.6156710154879073,-0.13411154345006485
-0.7214160372320134,-0.13780422674906534
-0.7348439765011063,-0.14132906080720226
-0.6764324406805524,-0.14821087968261232
-0.5810940718699931,-0.1576104371709773
-0.4877698939497978,-0.1693598840314336
-0.33066300450141145,-0.17875944151979858
-0.021820401312275882,-0.18144502937361714
0.31186388952468147,-0.17808804455634394
0.5743801022354467,-0.1693598840314336
0.7583428702220187,-0.15626764324406803
0.8402532997634852,-0.14267185473411154
0.84965285725185,-0.13075455863279162
0.7798275730525673,-0.11967650873579004
0.620706492713817,-0.09819180590524147
0.3837033646143282,-0.07167162584878309
0.1534142061493858,-0.05421530479896238
-0.029877164873731592,-0.042465857938506144
-0.18564126039520865,-0.022995345998321506
-0.3279774166475929,0.014602883955138474
-0.4823987182421607,0.06546120393682765
-0.6233920805676355,0.11363393606469825
-0.72309452964065,0.14821087968261232
-0.7348439765011063,0.16566720073243305
-0.6737468528267337,0.1710383764400702
-0.5901579308766308,0.16868848706797895
-0.48374151216906996,0.16231021591515984
-0.31253528648813605,0.15022507057297627
-0.024505989166094453,0.13411154345006485
0.3165636682688639,0.11296253910124363
0.5770656900892653,0.08677805752651253
0.7570000762951096,0.06160067139696345
0.8449530785076678,0.04078736552986953
0.8415960936903946,0.011917296101319903
0.7690852216372929,-0.027023727779049357
0.6066071564812695,-0.06730754558632791
0.37296101319905395,-0.0988632028686961
0.12454413672083621,-0.11464103150988021
-0.05438315403982604,-0.11917296101319905
-0.2017547875181201,-0.11699092088197145
-0.3467765316243228,-0.11900511177233539
-0.47232776379034097,-0.12974746318760969
-0.6170138094148164,-0.14317540245670252
-0.7261158159761959,-0.15794613565270463
-0.7271229114213779,-0.17473105973907072
-0.6797894254978255,-0.18815899900816355
-0.5817654688334477,-0.19285877775234606
-0.48575570305943383,-0.19218738078889144
-0.32428473334859237,-0.18413061722743573
-0.03054856183718624,-0.1700312809948882
0.29877164873731593,-0.15324635690852215
0.5834439612420843,-0.13679713130388343
0.7643854428931105,-0.12135500114442664
0.8469672693980316,-0.10356298161287861
0.8368963149462119,-0.08509956511787593
0.7717708094911115,-0.07167162584878309
0.6173495078965439,-0.05706874189364462
0.3769893949797818,-0.035919737544823374
0.14468604562447548,-0.005874723430228122
-0.048676279850461586,0.03474479285877775
-0.2017547875181201,0.0797283894102388
-0.33603418020904857,0.11732661936369877
-0.4763561455710689,0.1414969100480659
-0.6086213473716334,0.1534142061493858
-0.7247730220492866,0.15492484931715875
-0.7341725795376516,0.1512321660181582
-0.6626688029297322,0.14955367360952163
-0.5810940718699931,0.14250400549324788
-0.4595712214847028,0.12387273975738157
-0.3017929350728618,0.10104524299992369
-0.024505989166094453,0.08090333409628443
0.31253528648813605,0.06092927443350881
0.5868009460593575,0.03105210955977722
0.7717708094911115,-0.009903105210955977
0.8577096208133058,-0.05656519417105363
0.8556954299229419,-0.09651331349660487
0.7724422064545662,-0.12001220721751735
0.6066071564812695,-0.12504768444342718
0.3756466010528725,-0.12370489051651787
0.1453574425879301,-0.1240405889982452
-0.025177386129549097,-0.13109025711451894
-0.19034103913939115,-0.14132906080720226
-0.3387197680628672,-0.15022507057297627
-0.47232776379034097,-0.15912108033875028
-0.6240634775310901,-0.16902418554970625
-0.7180590524147402,-0.17640955214770732
-0.7368581673914703,-0.17875944151979858
-0.677103837644007,-0.17238117036697947
-0.5871366445410849,-0.16063172350652322
-0.4850843060959793,-0.15190356298161287
-0.3091783016708629,-0.1414969100480659
-0.024505989166094453,-0.12773327229724574
0.30951400015259023,-0.10926985580224306
0.568337529564355,-0.09382772564278628
0.7415579461356527,-0.08375677119096665
0.8389105058365758,-0.07066453040360113
0.8348821240558482,-0.04615854123750667
0.7724422064545662,-0.012588693064774548
0.6092927443350882,0.028702220187685965
0.37296101319905395,0.07200732433051041
0.14636453803311208,0.11027695124742502
-0.04061951628900587,0.1347829404135195
-0.18631265735866331,0.14821087968261232
-0.3467765316243228,0.15828183413443195
-0.49179827573052565,0.16029602502479592
-0.6381628137636377,0.1542534523537041
-0.731486991683833,0.14082551308461125
-0.7298084992751963,0.12336919203479056
-0.691874570840009,0.10255588616769665
-0.5965362020294499,0.08375677119096665
-0.48374151216906996,0.06697184710460058
-0.3091783016708629,0.044815747310597384
-0.016784924086366067,0.011245899137865261
0.3111924925612268,-0.028702220187685965
0.573708705271992,-0.06730754558632791
0.7459220263981079,-0.09617761501487754
0.8483100633249409,-0.11094834821087966
0.8523384451056687,-0.11430533302815289
0.7825131609063859,-0.11296253910124363
0.6294346532387274,-0.11732661936369877
0.37430380712596323,-0.12739757381551842
0.13394369420920116,-0.14183260852979326
-0.04129091325246051,-0.1576104371709773
-0.17892729076066224,-0.16835278858625158
-0.3293202105745021,-0.1774166475928893
-0.49884794384679954,-0.18950179293507285
-0.6388342107270923,-0.19554436560616464
-0.7244373235675593,-0.18698405432211795
-0.7348439765011063,-0.16700999465934235
-0.6663614862287328,-0.147875181200885
-0.584115358205539,-0.13209735255970093
-0.4696421759365224,-0.11766231784542608
-0.2997787441824979,-0.10557717250324253
-0.004699778744182497,-0.09483482108796826
0.3346913862821393,-0.08274967574578469
0.6025787747005417,-0.06529335469596398
0.7731136034180208,-0.041123064011596856
0.8429388876173036,-0.006210421911955443
0.8456244754711221,0.0387731746395056
0.7731136034180208,0.08375677119096665
0.6247348744945449,0.11581597619592585
0.3900816357671473,0.13327229724574652
0.14267185473411154,0.14602883955138474
-0.03390554665445944,0.15626764324406803
-0.18564126039520865,0.1569390402075227
-0.3313344014648661,0.1492179751277943
-0.4656137941557945,0.13612573434042877
-0.6153353170061798,0.12068360418097199
-0.7100022888532844,0.1054093232623789
-0.7429007400625619,0.08845654993514916
-0.6851606012054626,0.06613260090028229
-0.575722896162356,0.03474479285877775
-0.4682993820096132,-0.0005035477225909818
-0.3031357289997711,-0.03860532539864195
-0.02719157701991302,-0.0780498970016022
0.30582131685358965,-0.10691996643015184
0.5790798809796293,-0.11833371480888075
0.7643854428931105,-0.11783016708628975
0.84965285725185,-0.11833371480888075
0.8415960936903946,-0.12169069962615398
0.7811703669794765,-0.12806897077897306
0.6220492866407263,-0.13914702067597465
0.38101777676050963,-0.14988937209124895
0.14468604562447548,-0.15928892957961394
-0.050690470740825506,-0.16835278858625158
-0.19638361181048294,-0.17842374303807124
-0.3548332951857786,-0.18245212481879908
-0.4864271000228885,-0.17305256733043411
-0.6213778896772715,-0.1586175326161593
-0.7402151522087433,-0.1420004577706569
-0.7506218051422903,-0.12773327229724574
-0.6912031738765545,-0.11665522240024415
-0.6066071564812695,-0.1062485694666972
-0.4897840848401617,-0.09282063019760432
-0.3064927138170443,-0.07402151522087433
-0.020477607385366595,-0.049851224536507206
0.29440756847486077,-0.020309758144502935
0.5770656900892653,0.017288471808957043
0.7593499656672006,0.06428625925078202
0.8509956511787593,0.11128404669260701
0.8429388876173036,0.14351110093842984
0.7704280155642024,0.15744258793011368
0.6146639200427252,0.16029602502479592
0.3689326314183261,0.16096742198825056
0.15475700007629511,0.15895323109788664
-0.01846341649500267,0.14821087968261232
-0.17624170290684368,0.12739757381551842
-0.32864881361104753,0.10557717250324253
-0.4944838635843442,0.08845654993514916
-0.6341344319829099,0.07167162584878309
-0.7180590524147402,0.044815747310597384
-0.7267872129396507,0.00788891432059205
-0.6814679179064621,-0.03172350652323186
-0.6005645838101776,-0.06562905317769131
-0.481727321278706,-0.08879224841687647
-0.30112153810940717,-0.10826276035706112
-0.011749446860456245,-0.12236209658960862
0.3138780804150454,-0.12907606622415504
0.5810940718699931,-0.13209735255970093
0.7650568398565653,-0.1347829404135195
0.8402532997634852,-0.1411612115663386
0.8436102845807585,-0.1512321660181582
0.7610284580758372,-0.16063172350652322
0.5958648050659953,-0.17070267795834287
0.36624704356450744,-0.18312352178225372
0.1232013427939269,-0.18983749141680015
-0.051361867704280154,-0.18211642633707179
-0.18731975280384525,-0.16130312046997786
-0.32864881361104753,-0.13847562371252
-0.4823987182421607,-0.12269779507133592
-0.6381628137636377,-0.11094834821087966
-0.7244373235675593,-0.09852750438696878
-0.731486991683833,-0.08426031891355765
-0.677103837644007,-0.06865033951323721
-0.5857938506141755,-0.053208209353780414
-0.4756847486076141,-0.032730601968413826
-0.30447852292668043,-0.00016784924086366064
-0.021820401312275882,0.042465857938506144
0.31924925612268257,0.0844281681544213
0.5931792172121766,0.11866941329060808
0.7650568398565653,0.1411612115663386
0.8583810177767605,0.14955367360952163
0.8368963149462119,0.1475394827191577
0.7717708094911115,0.14485389486533912
0.6166781109330892,0.14586099031052108
0.3823605706874189,0.1381399252307927
0.1560997940032044,0.11934081025406272
-0.03927672236209659,0.09517051956969558
-0.18228427557793545,0.06965743495841917
-0.32562752727550165,0.043808651865415424
-0.4797131303883421,0.01695277332722972
-0.6348058289463645,-0.014267185473411156
-0.724101625085832,-0.050522621499961846
-0.7207446402685587,-0.08224612802319371
-0.6596475165941862,-0.10524147402151522
-0.5629663538567177,-0.12471198596169988
-0.462928206301976,-0.13730067902647441
-0.29776455329213397,-0.1398184176394293
-0.0006713969634546426,-0.13579003585870145
0.3098496986343175,-0.13444724193179217
0.5810940718699931,-0.14048981460288396
0.7623712520027466,-0.15022507057297627
0.8415960936903946,-0.16314946211947812
0.8509956511787593,-0.1807736324101625
0.7690852216372929,-0.19285877775234606
0.6200350957503623,-0.19235523002975508
0.3823605706874189,-0.1807736324101625
0.14468604562447548,-0.16432440680552376
-0.03659113450827802,-0.14720378423743039
-0.1910124361028458,-0.1351186388952468
-0.32730601968413825,-0.12236209658960862
-0.481727321278706,-0.10557717250324253
-0.6354772259098191,-0.09013504234378575
-0.7294728007934691,-0.08039978637369342
-0.7348439765011063,-0.06529335469596398
-0.6784466315709163,-0.03256275272755016
-0.590493629358358,0.014602883955138474
-0.4696421759365224,0.06462195773250935
-0.29575036240177,0.10524147402151522
-0.01376363775082017,0.1317616540779736
0.3179064621957733,0.14586099031052108
0.5777370870527199,0.15223926146334021
0.7768062867170215,0.15475700007629511
0.8570382238498512,0.15223926146334021
0.8402532997634852,0.14351110093842984
0.7643854428931105,0.13125810635538263
0.5985503929198138,0.11195544365606165
0.37094682230868997,0.08577096208133059
0.13662928206301975,0.061432822156099784
-0.03927672236209659,0.042801556420233464
-0.18832684824902723,0.020645456626230255
-0.34073395895323105,-0.011581597619592583
-0.48105592431525135,-0.050522621499961846
-0.6368200198367284,-0.08694590676737621
-0.7335011825741969,-0.11430533302815289
-0.7442435339894713,-0.12739757381551842
-0.6959029526207371,-0.12773327229724574
-0.5955291065842679,-0.1253833829251545
-0.48273441672388795,-0.1270618753337911
-0.2950789654383154,-0.13444724193179217
-0.008392462043183033,-0.14384679942015716
0.31253528648813605,-0.1576104371709773
0.5824368657969023,-0.17405966277561608
0.7657282368200198,-0.18782330052643625
0.8724803540093079,-0.19285877775234606
0.8536812390325781,-0.18446631570916305
0.7623712520027466,-0.166674296177615
0.6086213473716334,-0.147875181200885
0.37363241016250853,-0.12974746318760969
0.13797207598992905,-0.11161974517433432
-0.04599069199664301,-0.09449912260624094
-0.1990691996643015,-0.08342107270923933
-0.34946211947814143,-0.07939269092851148
-0.4850843060959793,-0.07200732433051041
-0.639505607690547,-0.048508430609597926
-0.7395437552452887,-0.008560311284046692
-0.7227588311589227,0.04145876249332417
-0.6670328831921873,0.0891279468986038
-0.5891508354314489,0.1240405889982452
-0.48105592431525135,0.14821087968261232
-0.3064927138170443,0.16096742198825056
-0.0003356984817273213,0.16298161287861446
0.32059205004959185,0.1586175326161593
0.5864652475776303,0.1508964675364309
0.7570000762951096,0.13931486991683834
0.8462958724345769,0.11799801632715344
0.8614023041123062,0.09315632867933166
0.7731136034180208,0.0750286106660563
0.6066071564812695,0.058915083543144876
0.3689326314183261,0.033401998931868467
0.13864347295338367,0.0003356984817273213
-0.044647898069733724,-0.035416189822232394
-0.2024261844815747,-0.0703288319218738
-0.34140535591668575,-0.09852750438696878
-0.4971694514381629,-0.11497672999160755
-0.6435339894712748,-0.12236209658960862
-0.7288014038300145,-0.12135500114442664
-0.7402151522087433,-0.11833371480888075
-0.6744182497901884,-0.12639047837033646
-0.5965362020294499,-0.14183260852979326
-0.47769893949797815,-0.15223926146334021
-0.305149919890135,-0.15744258793011368
-0.009063859006637675,-0.16466010528725106
0.3259632257572289,-0.17607385366598
0.575722896162356,-0.18480201419089035
0.7489433127336537,-0.18178072785534446
0.8429388876173036,-0.166674296177615
0.8483100633249409,-0.14670023651483938
0.7731136034180208,-0.1287403677424277
0.6106355382619973,-0.11430533302815289
0.37161821927214467,-0.10222018768596933
0.12454413672083621,-0.09164568551155872
-0.058075837338826576,-0.08073548485542076
-0.1977264057373922,-0.061936369878690785
-0.33670557717250316,-0.030045014114595252
-0.4743419546807049,0.012252994583047227
-0.6321202410925459,0.057572289616235596
-0.7261158159761959,0.0988632028686961
-0.7244373235675593,0.12806897077897306
-0.6609903105210956,0.1445181963836118
-0.5629663538567177,0.14988937209124895
-0.46897077897306777,0.14888227664606699
-0.29575036240177,0.147875181200885
-0.007721065079728388,0.14518959334706644
0.3259632257572289,0.13679713130388343
0.5931792172121766,0.11598382543678949
0.7650568398565653,0.08946364538033112
0.8530098420691232,0.06730754558632791
0.8449530785076678,0.04917982757305257
0.7690852216372929,0.024338139925230793
0.6116426337071793,-0.012252994583047227
0.3756466010528725,-0.0528725108720531
0.13058670939192796,-0.08778515297169451
-0.05673304341191729,-0.11229114213778896
-0.19974059662775617,-0.12639047837033646
-0.3467765316243228,-0.1317616540779736
-0.4864271000228885,-0.13310444800488286
-0.6233920805676355,-0.13780422674906534
-0.7335011825741969,-0.14518959334706644
-0.7382009613183794,-0.14804303044174866
-0.6784466315709163,-0.1492179751277943
-0.5878080415045395,-0.15056076905470359
-0.47232776379034097,-0.1586175326161593
-0.30582131685358965,-0.17473105973907072
-0.006378271152819104,-0.18245212481879908
0.32327763790341035,-0.1722133211261158
0.5898222323949035,-0.14888227664606699
0.7798275730525673,-0.12974746318760969
0.8617380025940338,-0.11984435797665367
0.8617380025940338,-0.10977340352483406
0.7717708094911115,-0.09752040894178682
0.6012359807736323,-0.08342107270923933
0.36557564660105285,-0.06898603799496453
0.14401464866102082,-0.04649423971923399
-0.03994811932555123,-0.008224612802319372
-0.2051117723353933,0.042465857938506144
-0.353154802777142,0.09147783627069504
-0.4971694514381629,0.12521553368429084
-0.6374914168001832,0.14468604562447548
-0.7227588311589227,0.15542839703974973
-0.7338368810559243,0.16231021591515984
-0.6670328831921873,0.16096742198825056
-0.582101167315175,0.15022507057297627
-0.4696421759365224,0.13780422674906534
-0.29306477454795143,0.12605477988860914
-0.011749446860456245,0.11262684061951626
0.3085069047074082,0.09449912260624094
0.5622949568932631,0.06562905317769131
0.7449149309529259,0.02853437094682231
0.8409246967269398,-0.009567406729228655
0.8536812390325781,-0.042465857938506144
0.7811703669794765,-0.07335011825741969
0.5958648050659953,-0.10087739375906005
0.36423285267414357,-0.12051575494010834
0.13797207598992905,-0.12739757381551842
-0.03659113450827802,-0.12605477988860914
-0.18832684824902723,-0.12639047837033646
-0.35147631036850535,-0.13377584496833753
-0.4944838635843442,-0.14518959334706644
-0.6478980697337301,-0.15727473868925002
-0.7321583886472877,-0.16600289921416037
-0.7173876554512856,-0.17405966277561608
-0.6663614862287328,-0.1837949187457084
-0.5676661326009002,-0.1901731898985275
-0.47031357289997716,-0.18681620508125427
-0.3091783016708629,-0.17204547188525215
-0.0003356984817273213,-0.15593194476234074
0.32394903486686505,-0.13881132219424736
0.5804226749065384,-0.12169069962615398
0.7496147096971084,-0.10943770504310674
0.8483100633249409,-0.09987029831387809
0.844281681544213,-0.08744945448996719
0.7754634927901122,-0.06865033951323721
0.6092927443350882,-0.04078736552986953
0.3628900587472343,-0.0015106431677729458
0.13360799572747387,0.04783703364614328
-0.043305104142824444,0.0971847104600595
-0.1910124361028458,0.13545433737697413
-0.33066300450141145,0.15727473868925002
-0.4877698939497978,0.16163881895170518
-0.6341344319829099,0.15223926146334021
-0.731486991683833,0.14283970397497517
-0.7267872129396507,0.13914702067597465
-0.6589761196307317,0.13461509117265583
-0.5743801022354467,0.12068360418097199
-0.4615854123750668,0.09919890135042343
-0.29776455329213397,0.07486076142519264
-0.007049668116273747,0.0473334859235523
0.3259632257572289,0.016617074845502403
0.5985503929198138,-0.020309758144502935
0.7637140459296559,-0.05790798809796292
0.832867933165484,-0.08812085145342184
0.8375677119096665,-0.10557717250324253
0.7570000762951096,-0.11497672999160755
0.5985503929198138,-0.12169069962615398
0.3689326314183261,-0.1282368200198367
0.1309224078736553,-0.13612573434042877
-0.04800488288700694,-0.14283970397497517
-0.20444037537193865,-0.14888227664606699
-0.34744792858777757,-0.15626764324406803
-0.4743419546807049,-0.16700999465934235
-0.6280918593118181,-0.18312352178225372
-0.7247730220492866,-0.1935301747158007
-0.7422293430991073,-0.19084458686198216
-0.6784466315709163,-0.17808804455634394
-0.5777370870527199,-0.16398870832379644
-0.4679636835278858,-0.148378728923476
-0.2870222018768597,-0.1287403677424277
0.005706874189364461,-0.10490577553978789
0.3387197680628672,-0.0861066605630579
0.5978789959563592,-0.07402151522087433
0.7690852216372929,-0.06260776684214542
0.8449530785076678,-0.044480048828870064
0.8348821240558482,-0.012252994583047227
0.7727779049362935,0.033401998931868467
0.5938506141756313,0.08375677119096665
0.36221866178377965,0.12471198596169988
0.13528648813611044,0.14955367360952163
-0.054047455558098714,0.15660334172579538
-0.1967193102922103,0.1542534523537041
-0.3548332951857786,0.1512321660181582
-0.5025406271457998,0.14317540245670252
-0.639505607690547,0.13125810635538263
-0.7294728007934691,0.11799801632715344
-0.7281300068665598,0.10054169527733271
-0.6858319981689174,0.0797283894102388
-0.5871366445410849,0.05488670176241703
-0.47199206530861376,0.02400244144350347
-0.29440756847486077,-0.01359578850995651
-0.0016784924086366065,-0.050522621499961846
0.3165636682688639,-0.08039978637369342
0.5857938506141755,-0.10054169527733271
0.76069275959411,-0.11363393606469825
0.8520027466239414,-0.12336919203479056
0.8489814602883955,-0.13075455863279162
0.7717708094911115,-0.13780422674906534
0.6146639200427252,-0.14518959334706644
0.3581902800030518,-0.15022507057297627
0.1326009002822919,-0.1552605477988861
-0.049347676813916226,-0.16197451743343252
-0.20846875715266647,-0.17070267795834287
-0.34476234073395895,-0.18110933089188982
-0.4985122453650721,-0.18765545128557257
-0.6260776684214542,-0.18144502937361714
-0.712687876707103,-0.16281376363775082
-0.7180590524147402,-0.14384679942015716
-0.6596475165941862,-0.1257190814068818
-0.5690089265278097,-0.10775921263447012
-0.45151445792324707,-0.09214923323414968
-0.2796368352788586,-0.07469291218432898
0.017120622568093383,-0.060593575951781484
0.32864881361104753,-0.04917982757305257
0.590493629358358,-0.028702220187685965
0.7690852216372929,0.007217517357137408
0.8362249179827573,0.06260776684214542
0.8395819028000304,0.11917296101319905
0.7623712520027466,0.1542534523537041
0.5958648050659953,0.16449225604638743
0.3555046921492332,0.16365300984206912
0.11514457923247119,0.16163881895170518
-0.04666208896009766,0.1569390402075227
-0.19302662699320974,0.14804303044174866
-0.3387197680628672,0.13746852826733807
-0.4793774319066147,0.12202639810788128
-0.6314488441290912,0.10255588616769665
-0.7227588311589227,0.0797283894102388
-0.7227588311589227,0.05421530479896238
-0.6663614862287328,0.02366674296177615
-0.5770656900892653,-0.01628137636377508
-0.47232776379034097,-0.057236591134508276
-0.2937361715114062,-0.09047074082551307
-0.021820401312275882,-0.11229114213778896
0.31589227130540926,-0.12169069962615398
0.5810940718699931,-0.12370489051651787
0.7516289005874722,-0.1270618753337911
0.8375677119096665,-0.13579003585870145
0.8268253604943924,-0.14518959334706644
0.7710994125276569,-0.1508964675364309
0.6062714579995422,-0.1586175326161593
0.35147631036850535,-0.16801709010452429
0.12185854886701762,-0.17708094911116198
-0.058411535820553896,-0.18312352178225372
-0.18832684824902723,-0.18429846646829937
-0.3373769741359579,-0.18043793392843518
-0.4951552605477989,-0.17070267795834287
-0.6331273365377278,-0.1534142061493858
-0.7254444190127411,-0.12806897077897306
-0.7180590524147402,-0.10691996643015184
-0.6653543907835507,-0.092484931715877
-0.568337529564355,-0.08107118333714809
-0.46897077897306777,-0.06898603799496453
-0.2903791866941329,-0.04716563668268864
0.006042572671091783,-0.012420843823910887
0.32126344701304643,0.03474479285877775
0.5931792172121766,0.08509956511787593
0.7603570611123827,0.12437628747997252
0.841260395208667,0.1525749599450675
0.8389105058365758,0.166674296177615
0.7576714732585641,0.16902418554970625
0.6113069352254519,0.15962462806134128
0.3632257572289616,0.1445181963836118
0.12051575494010834,0.13008316166933698
-0.06546120393682765,0.11799801632715344
-0.22055390249485005,0.10440222781719691
-0.3561760891126879,0.08560311284046693
-0.500526436255436,0.06092927443350881
-0.6381628137636377,0.03138780804150454
-0.7267872129396507,-0.0028534370946822307
-0.7227588311589227,-0.041123064011596856
-0.6556191348134585,-0.0767071030746929
-0.5562523842221714,-0.10423437857633323
-0.417944609750515,-0.11967650873579004
-0.24371709773403524,-0.12370489051651787
0.033234149691004806,-0.12236209658960862
0.34610513466086823,-0.1253833829251545
0.5931792172121766,-0.13931486991683834
0.7784847791256579,-0.1535820553902495
0.8530098420691232,-0.15895323109788664
0.8362249179827573,-0.15727473868925002
0.7590142671854733,-0.1586175326161593
0.6012359807736323,-0.16835278858625158
0.3689326314183261,-0.17842374303807124
0.13931486991683834,-0.175066758220798
-0.044983596551461044,-0.16197451743343252
-0.2017547875181201,-0.14720378423743039
-0.35147631036850535,-0.1317616540779736
-0.4850843060959793,-0.11564812695506219
-0.6334630350194552,-0.09970244907301441
-0.7194018463416494,-0.08342107270923933
-0.7200732433051041,-0.07200732433051041
-0.6650186923018233,-0.061936369878690785
-0.5710231174181735,-0.03776607919432364
-0.46024261844815745,0.003860532539864194
-0.2796368352788586,0.05622949568932631
-0.008392462043183033,0.10255588616769665
0.3024643320363164,0.13276874952315554
0.5575951781490806,0.15022507057297627
0.7234302281223773,0.16029602502479592
0.8194399938963911,0.16298161287861446
0.7959411001754787,0.15475700007629511
0.710673685816739,0.13730067902647441
0.5555809872587167,0.12001220721751735
0.3259632257572289,0.10843060959792476
0.09903105210955977,0.09584191653315023
-0.07553215838864728,0.07905699244678416
-0.20444037537193865,0.057572289616235596
-0.3467765316243228,0.021988250553139542
-0.47702754253452356,-0.028030823224231328
-0.6045929655909056,-0.07284657053482871
-0.6824750133516441,-0.09819180590524147
-0.6744182497901884,-0.10893415732051576
-0.6327916380560006,-0.11833371480888075
-0.5455100328068971,-0.12336919203479056
-0.4300297550926986,-0.12034790569924468
-0.2527809567406729,-0.11766231784542608
0.033234149691004806,-0.12303349355306323
0.33536278324559393,-0.1414969100480659
0.5918364232852674,-0.16600289921416037
0.7489433127336537,-0.18043793392843518
0.8238040741588464,-0.18043793392843518
0.8174258030060273,-0.17405966277561608
0.7274586099031052,-0.17557030594338902
0.5763942931258106,-0.17892729076066224
0.33267719539177537,-0.1693598840314336
0.09903105210955977,-0.14720378423743039
-0.06747539482719157,-0.12303349355306323
-0.2064545662623026,-0.10759136339360646
-0.33603418020904857,-0.09617761501487754
-0.4877698939497978,-0.08476386663614863
-0.6193636987869078,-0.06831464103150987
-0.6935530632486456,-0.044815747310597384
-0.6925459678034637,-0.01359578850995651
-0.630106050202182,0.02937361715114061
-0.5589379720759899,0.07771419851987486
-0.45487144274052027,0.11850156404974439
-0.2829938200961318,0.1461966887922484
-0.0003356984817273213,0.16096742198825056
0.33099870298313877,0.16533150225070573
0.5582665751125353,0.1576104371709773
0.7308155947203783,0.14653238727397572
0.806683451590753,0.1381399252307927
0.8039978637369345,0.12605477988860914
0.7395437552452887,0.11061264972915236
0.5810940718699931,0.0891279468986038
0.3440909437705043,0.062272068360418105
0.11447318226901655,0.033066300450141146
-0.06344701304646372,-0.003860532539864194
-0.21383993286030367,-0.04783703364614328
-0.34811932555123215,-0.09147783627069504
-0.4783703364614328,-0.12034790569924468
-0.6290989547570001,-0.12639047837033646
-0.7066453040360113,-0.1253833829251545
-0.7053025101091019,-0.12672617685206378
-0.6495765621423666,-0.13344014648661018
-0.5515526054779888,-0.14048981460288396
-0.4568856336308843,-0.14821087968261232
-0.278965438315404,-0.15475700007629511
0.009063859006637675,-0.15996032654306858
0.3246204318303197,-0.17070267795834287
0.5824368657969023,-0.1874876020447089
0.7482719157701991,-0.19218738078889144
0.8281681544213015,-0.18010223544670784
0.806683451590753,-0.16214236667429618
0.7355153734645609,-0.14552529182879376
0.5743801022354467,-0.13109025711451894
0.34073395895323105,-0.11866941329060808
0.11917296101319905,-0.10708781567101548
-0.07351796749828336,-0.09282063019760432
-0.21417563134203096,-0.08073548485542076
-0.34946211947814143,-0.07133592736705577
-0.4743419546807049,-0.051865415426871134
-0.6153353170061798,-0.015106431677729458
-0.712687876707103,0.03944457160296025
-0.6932173647669185,0.09365987640192262
-0.6368200198367284,0.13528648813611044
-0.5481956206607157,0.16063172350652322
-0.4273441672388799,0.1696955825131609
-0.26889448386358433,0.16432440680552376
0.01846341649500267,0.15223926146334021
0.3373769741359579,0.1420004577706569
0.5992217898832686,0.13008316166933698
0.7710994125276569,0.11464103150988021
0.8389105058365758,0.09852750438696878
0.8308537422751202,0.08308537422751203
0.7435721370260167,0.05992217898832684
0.5797512779430838,0.02333104448004883
0.34341954680704967,-0.020309758144502935
0.11245899137865262,-0.061936369878690785
-0.07687495231555656,-0.092484931715877
-0.22793926909285112,-0.10926985580224306
-0.34274814984359503,-0.12034790569924468
-0.4844129091325245,-0.12639047837033646
-0.6186923018234531,-0.12370489051651787
-0.6925459678034637,-0.12303349355306323
-0.691874570840009,-0.1317616540779736
-0.6354772259098191,-0.14821087968261232
-0.557930876630808,-0.16398870832379644
-0.44211490043488205,-0.17489890897993438
-0.2574807354848554,-0.18312352178225372
0.023163195239185166,-0.18715190356298161
0.3400625619897764,-0.18345922026398107
0.573708705271992,-0.17036697947661553
0.7341725795376516,-0.1508964675364309
0.8147402151522086,-0.13310444800488286
0.8080262455176623,-0.11699092088197145
0.7267872129396507,-0.10087739375906005
0.5649805447470816,-0.08409246967269397
0.34711223010605013,-0.07267872129396505
0.12454413672083621,-0.06562905317769131
-0.048676279850461586,-0.050186923018234526
-0.18631265735866331,-0.01846341649500267
-0.3350270847638666,0.025345235370412753
-0.46762798504615855,0.07267872129396505
-0.6166781109330892,0.11329823758297093
-0.6905317769130999,0.14485389486533912
-0.6777752346074616,0.16633859769588769
-0.620706492713817,0.17405966277561608
-0.5300679026474403,0.16499580376897838
-0.43405813687342637,0.14955367360952163
-0.25949492637521937,0.13612573434042877
0.04061951628900587,0.12068360418097199
0.34610513466086823,0.1062485694666972
0.5878080415045395,0.0891279468986038
0.7449149309529259,0.07234302281223774
0.8174258030060273,0.04917982757305257
0.806683451590753,0.010574502174410621
0.7422293430991073,-0.035416189822232394
0.5817654688334477,-0.0780498970016022
0.34073395895323105,-0.10826276035706112
0.12454413672083621,-0.12101930266269931
-0.05941863126573587,-0.11984435797665367
-0.19504081788357364,-0.11631952391851681
-0.33066300450141145,-0.12051575494010834
-0.47904173342488743,-0.13142595559624626
-0.6153353170061798,-0.14317540245670252
-0.7160448615243763,-0.15660334172579538
-0.7187304493781949,-0.16868848706797895
-0.6556191348134585,-0.17607385366598
-0.5723659113450827,-0.175066758220798
-0.45084306095979243,-0.1700312809948882
-0.27426565957122145,-0.16533150225070573
0.023834592202639806,-0.15996032654306858
0.3420767528801404,-0.15056076905470359
0.5817654688334477,-0.13780422674906534
0.7308155947203783,-0.12068360418097199
0.7952697032120242,-0.09953459983215075
0.7945983062485694,-0.0780498970016022
0.7086594949263753,-0.062272068360418105
0.5575951781490806,-0.048844129091325246
0.3179064621957733,-0.029709315632867935
0.08761730373083085,0.0035248340581368735
-0.07956054016937514,0.04783703364614328
-0.2195468070496681,0.09365987640192262
-0.35349050125886927,0.12806897077897306
-0.4864271000228885,0.14653238727397572
-0.6146639200427252,0.1542534523537041
-0.6945601586938277,0.15660334172579538
-0.7120164797436483,0.15492484931715875
-0.6354772259098191,0.1450217441062028
-0.5374532692454412,0.12739757381551842
-0.44480048828870067,0.1057450217441062
-0.2729228656443122,0.08661020828564889
0.013092240787365528,0.06965743495841917
0.33099870298313877,0.05085831998168917
0.5810940718699931,0.021988250553139542
0.7486076142519265,-0.012588693064774548
0.8133974212252995,-0.050186923018234526
0.804669260700389,-0.08560311284046693
0.740886549172198,-0.11111619745174332
0.5636377508201724,-0.1253833829251545
0.33670557717250316,-0.1304188601510643
0.10305943389028763,-0.13008316166933698
-0.074189364461738,-0.13142595559624626
-0.20981155107957578,-0.14283970397497517
-0.34811932555123215,-0.16029602502479592
-0.4693064774547951,-0.17070267795834287
-0.5951934081025406,-0.17674525062943464
-0.6871747920958267,-0.18564126039520865
-0.6797894254978255,-0.1915159838254368
-0.6220492866407263,-0.18950179293507285
-0.5324177920195314,-0.1774166475928893
-0.42868696116578925,-0.16130312046997786
-0.2588235294117647,-0.1453574425879301
0.016449225604638743,-0.12974746318760969
0.31924925612268257,-0.11699092088197145
0.5743801022354467,-0.10104524299992369
0.7432364385442893,-0.08509956511787593
0.8248111696040283,-0.06630045014114595
0.7986266880292973,-0.03675898374914168
0.7214160372320134,0.0011749446860456242
0.5629663538567177,0.041123064011596856
0.3085069047074082,0.08107118333714809
0.10843060959792476,0.11229114213778896
-0.06613260090028229,0.13545433737697413
-0.22055390249485005,0.1512321660181582
-0.34811932555123215,0.15895323109788664
-0.4844129091325245,0.15962462806134128
-0.6126497291523614,0.1542534523537041
-0.6797894254978255,0.14216830701152056
-0.6818036163881894,0.12605477988860914
-0.630106050202182,0.10926985580224306
-0.5434958419165331,0.0891279468986038
-0.4209658960860609,0.06898603799496453
-0.2574807354848554,0.04515144579232471
0.013092240787365528,0.01326009002822919
0.3138780804150454,-0.025680933852140077
0.5542381933318073,-0.06630045014114595
0.7281300068665598,-0.09852750438696878
0.8107118333714809,-0.11665522240024415
0.8268253604943924,-0.12471198596169988
0.7341725795376516,-0.12521553368429084
0.5629663538567177,-0.12303349355306323
0.32730601968413825,-0.12639047837033646
0.0963454642557412,-0.14082551308461125
-0.064789806973373,-0.15928892957961394
-0.2051117723353933,-0.1708705271992065
-0.3387197680628672,-0.17607385366598
-0.4682993820096132,-0.18010223544670784
-0.6092927443350882,-0.17976653696498052
-0.6838178072785533,-0.17372396429388878
-0.6764324406805524,-0.16264591439688714
-0.6247348744945449,-0.147875181200885
-0.5428244449530785,-0.12941176470588234
-0.43472953383688107,-0.11195544365606165
-0.2678873884184023,-0.1002059967956054
0.014435034714274816,-0.09013504234378575
0.3420767528801404,-0.08023193713282978
0.5797512779430838,-0.06294346532387274
0.7355153734645609,-0.03138780804150454
0.806683451590753,0.010070954451819639
0.7986266880292973,0.05673304341191729
0.7395437552452887,0.09684901197833219
0.5622949568932631,0.12252994583047226
0.3246204318303197,0.13864347295338367
0.09500267032883192,0.14988937209124895
-0.074189364461738,0.1535820553902495
-0.2004119935912108,0.14250400549324788
-0.3420767528801404,0.12471198596169988
-0.4823987182421607,0.11061264972915236
-0.6126497291523614,0.09651331349660487
-0.6959029526207371,0.07704280155642022
-0.6891889829861906,0.057236591134508276
-0.6287632562752727,0.04011596856641489
-0.5408102540627145,0.01695277332722972
-0.4390936140993362,-0.020309758144502935
-0.2705729762722209,-0.06462195773250935
0.021149004348821242,-0.10087739375906005
0.3346913862821393,-0.11934081025406272
0.5945220111390859,-0.12437628747997252
0.7422293430991073,-0.12639047837033646
0.7939269092851148,-0.1304188601510643
0.7845273517967497,-0.13377584496833753
0.7187304493781949,-0.13444724193179217
0.5690089265278097,-0.13310444800488286
0.3246204318303197,-0.13545433737697413
0.08896009765774013,-0.14518959334706644
-0.0882887006942855,-0.16029602502479592
-0.2192111085679408,-0.17624170290684368
-0.3440909437705043,-0.17959868772411688
-0.4743419546807049,-0.16398870832379644
-0.601907377737087,-0.14317540245670252
-0.691874570840009,-0.1292439154650187
-0.6858319981689174,-0.12101930266269931
-0.6153353170061798,-0.11363393606469825
-0.5354390783550775,-0.0971847104600595
-0.42398718242160677,-0.07402151522087433
-0.2568093385214008,-0.05387960631723506
0.026184481574731057,-0.03843747615777828
0.32663462272068355,-0.01812771801327535
0.5790798809796293,0.021149004348821242
0.759685664148928,0.07133592736705577
0.8073548485542076,0.11363393606469825
0.7825131609063859,0.1381399252307927
0.7153734645609215,0.14955367360952163
0.5555809872587167,0.1555962462806134
0.32864881361104753,0.1555962462806134
0.09365987640192262,0.15022507057297627
-0.06747539482719157,0.1364614328221561
-0.20981155107957578,0.11665522240024415
-0.35147631036850535,0.09752040894178682
-0.4830701152056153,0.08560311284046693
-0.6059357595178149,0.07217517357137408
-0.6757610437170978,0.04548714427405204
-0.6754253452353703,0.007217517357137408
-0.6277561608300908,-0.03373769741359579
-0.5434958419165331,-0.07200732433051041
-0.4300297550926986,-0.09852750438696878
-0.23801022354467077,-0.11631952391851681
0.023834592202639806,-0.1317616540779736
0.3202563515678644,-0.1414969100480659
0.5770656900892653,-0.13881132219424736
0.7355153734645609,-0.13109025711451894
0.8157473105973907,-0.13008316166933698
0.8063477531090256,-0.13847562371252
0.7267872129396507,-0.14888227664606699
0.5512169069962614,-0.16063172350652322
0.31924925612268257,-0.17238117036697947
0.10910200656137943,-0.17808804455634394
-0.064789806973373,-0.17473105973907072
-0.19504081788357364,-0.16331731136034178
-0.33066300450141145,-0.14317540245670252
-0.47299916075379567,-0.12269779507133592
-0.601907377737087,-0.10926985580224306
-0.6831464103150988,-0.09852750438696878
-0.6690470740825513,-0.08744945448996719
-0.6307774471656367,-0.07570000762951096
-0.5461814297703517,-0.05992217898832684
-0.4313725490196079,-0.03407339589532311
-0.25445944914930957,0.003189135576409552
0.044647898069733724,0.04682993820096131
0.3323414969100481,0.08879224841687647
0.5824368657969023,0.12202639810788128
0.7388723582818341,0.14082551308461125
0.8100404364080261,0.14854657816433967
0.8107118333714809,0.14821087968261232
0.716716258487831,0.14384679942015716
0.5441672388799876,0.13881132219424736
0.3068284122987716,0.13058670939192796
0.08560311284046693,0.11380178530556191
-0.08358892195010299,0.09030289158464942
-0.22323949034866863,0.06596475165941862
-0.3548332951857786,0.04649423971923399
-0.4907911802853437,0.02333104448004883
-0.6193636987869078,-0.007553215838864729
-0.6959029526207371,-0.04414435034714275
-0.6797894254978255,-0.08039978637369342
-0.6133211261158159,-0.1096055542839704
-0.5267109178301671,-0.1304188601510643
-0.41660181582360567,-0.13914702067597465
-0.25009536888685435,-0.13713282978561073
0.035919737544823374,-0.13310444800488286
0.350133516441596,-0.13495078965438315
0.5824368657969023,-0.13746852826733807
0.7489433127336537,-0.14552529182879376
0.8107118333714809,-0.15794613565270463
0.8053406576638438,-0.1700312809948882
0.7294728007934691,-0.17842374303807124
0.5622949568932631,-0.18043793392843518
0.3215991454947737,-0.1693598840314336
0.07049668116273747,-0.1461966887922484
-0.08560311284046693,-0.12236209658960862
-0.2118257419699397,-0.1079270618753338
-0.3387197680628672,-0.09919890135042343
-0.4750133516441596,-0.08879224841687647
-0.6173495078965439,-0.07771419851987486
-0.6891889829861906,-0.06865033951323721
-0.6831464103150988,-0.05522240024414436
-0.6210421911955444,-0.026352330815594724
-0.519325551232166,0.0213168535896849
-0.4112306401159686,0.07301441977569237
-0.23465323872739755,0.11631952391851681
0.04095521477073319,0.1381399252307927
0.34274814984359503,0.14485389486533912
0.5857938506141755,0.14888227664606699
0.7351796749828337,0.1512321660181582
0.8053406576638438,0.1508964675364309
0.7778133821622034,0.14384679942015716
0.691874570840009,0.12806897077897306
0.5314106965743495,0.10759136339360646
0.3098496986343175,0.08577096208133059
0.0882887006942855,0.060761425192645144
-0.08896009765774013,0.03105210955977722
-0.21518272678721292,-0.00016784924086366064
-0.34543373769741353,-0.0323949034866865
-0.4750133516441596,-0.06999313344014649
-0.6146639200427252,-0.10389868009460593
-0.6959029526207371,-0.12454413672083621
-0.6690470740825513,-0.1317616540779736
-0.6260776684214542,-0.13209735255970093
-0.5334248874647135,-0.12806897077897306
-0.417944609750515,-0.1240405889982452
-0.24069581139848936,-0.1257190814068818
0.04531929503318838,-0.13713282978561073
0.34073395895323105,-0.15223926146334021
0.5891508354314489,-0.16365300984206912
0.7455863279163805,-0.17708094911116198
0.8133974212252995,-0.18547341115434499
0.7966124971389333,-0.18110933089188982
0.7046311131456473,-0.16801709010452429
0.5488670176241703,-0.1508964675364309
0.31320668345159075,-0.13377584496833753
0.09500267032883192,-0.11766231784542608
-0.08090333409628443,-0.10222018768596933
-0.22323949034866863,-0.08879224841687647
-0.34476234073395895,-0.07771419851987486
-0.48374151216906996,-0.06260776684214542
-0.6035858701457236,-0.0387731746395056
-0.6804608224612801,-0.0025177386129549098
-0.6851606012054626,0.04548714427405204
-0.6200350957503623,0.09181353475242236
-0.5441672388799876,0.12303349355306323
-0.42197299153124274,0.14082551308461125
-0.2383459220263981,0.14888227664606699
0.043640802624551764,0.15022507057297627
0.35214770733196,0.1475394827191577
0.5703517204547187,0.1414969100480659
0.724101625085832,0.12941176470588234
0.8026550698100251,0.10994125276569772
0.787884336614023,0.08677805752651253
0.6972457465476463,0.06294346532387274
0.5307392996108949,0.04145876249332417
0.3098496986343175,0.019806210421911954
0.08023193713282978,-0.009735255970092317
-0.08023193713282978,-0.051529716945143814
-0.21551842526894024,-0.0946669718471046
-0.3561760891126879,-0.12236209658960862
-0.4797131303883421,-0.13411154345006485
-0.6166781109330892,-0.13612573434042877
-0.6831464103150988,-0.13411154345006485
-0.658304722667277,-0.13528648813611044
-0.6005645838101776,-0.1420004577706569
-0.5092545967803463,-0.1468680857557031
