EMG Sensor 0,EMG Sensor 1
0.0,0.0
0.0,0.0
0.0,0.0
0.0,0.0
0.0,0.0
0.0,0.0
0.0,0.0
0.0,0.0
0.0,0.0
0.0,0.0
0.0,0.0
0.0,0.0
0.0,0.0
0.0,0.0
0.0,0.0
0.0,0.0
0.0,0.0
0.0,0.0
0.0,0.0
0.0,0.0
0.0,0.0
0.0,0.0
0.0,0.0
0.0,0.0
0.0,0.0
0.0,0.0
0.0,0.0
0.0,0.0
0.0,0.0
0.0,0.0
0.0,0.0
0.0,0.0
0.0,0.0
0.0,0.0
0.0,0.0
0.0,0.0
0.0,0.0
0.0,0.0
0.0,0.0
0.0,0.0
0.0,0.0
0.0,0.0
0.0,0.0
0.0,0.0
0.0,0.0
0.0,0.0
0.0,0.0
0.0,0.0
0.0,0.0
0.0,0.0
0.0,0.0
0.0,0.0
0.0,0.0
0.0,0.0
0.0,0.0
0.0,0.0
0.0,0.0
0.0,0.0
0.0,0.0
0.0,0.0
0.0,0.0
0.0,0.0
0.0,0.0
0.0,0.0
0.0,0.0
0.0,0.0
0.0,0.0
0.0,0.0
0.0,0.0
0.0,0.0
0.0,0.0
0.0,0.0
0.0,0.0
0.0,0.0
0.0,0.0
0.0,0.0
0.0,0.0
0.0,0.0
0.0,0.0
0.0,0.0
0.0,0.0
0.0,0.0
0.0,0.0
0.0,0.0
0.0,0.0
0.0,0.0
0.0,0.0
0.0,0.0
0.0,0.0
0.0,0.0
0.0,0.0
0.0,0.0
0.0,0.0
0.0,0.0
0.0,0.0
0.0,0.0
0.0,0.0
0.0,0.0
0.0,0.0
0.0,0.0
0.0,0.0
0.0,0.0
0.0,0.0
0.0,0.0
0.0,0.0
0.0,0.0
0.0,0.0
0.0,0.0
0.0,0.0
0.0,0.0
0.0,0.0
0.0,0.0
0.0,0.0
0.0,0.0
0.0,0.0
0.0,0.0
0.0,0.0
0.0,0.0
0.0,0.0
0.0,0.0
0.0,0.0
0.0,0.0
0.0,0.0
0.0,0.0
0.0,0.0
0.0,0.0
0.0,0.0
0.0,0.0
0.0,0.0
0.0,0.0
0.0,0.0
0.0,0.0
0.0,0.0
0.0,0.0
0.0,0.0
0.0,0.0
0.0,0.0
0.0,0.0
0.0,0.0
0.0,0.0
0.0,0.0
0.0,0.0
0.0,0.0
0.0,0.0
0.0,0.0
0.0,0.0
0.0,0.0
0.0,0.0
0.0,0.0
0.0,0.0
0.0,0.0
0.0,0.0
0.0,0.0
0.0,0.0
0.0,0.0
0.0,0.0
0.0,0.0
0.0,0.0
0.0,0.0
0.0,0.0
0.0,0.0
0.0,0.0
0.0,0.0
0.0,0.0
0.0,0.0
0.0,0.0
0.0,0.0
0.0,0.0
0.0,0.0
0.0,0.0
0.0,0.0
0.0,0.0
0.0,0.0
0.0,0.0
0.0,0.0
0.0,0.0
0.0,0.0
0.0,0.0
0.0,0.0
0.0,0.0
0.0,0.0
0.0,0.0
0.0,0.0
0.0,0.0
0.0,0.0
0.0,0.0
0.0,0.0
0.0,0.0
0.0,0.0
0.0,0.0
0.0,0.0
0.0,0.0
0.0,0.0
0.0,0.0
0.0,0.0
0.0,0.0
0.0,0.0
0.0,0.0
0.0,0.0
0.0,0.0
0.0,0.0
0.0,0.0
0.0,0.0
0.0,0.0
0.0,0.0
0.0,0.0
0.0,0.0
0.0,0.0
0.0,0.0
0.0,0.0
0.0,0.0
0.0,0.0
0.0,0.0
0.0,0.0
0.0,0.0
0.0,0.0
0.0,0.0
0.0,0.0
0.0,0.0
0.0,0.0
0.0,0.0
-0.4092164492256046,0.0
-0.32663462272068355,0.0
-0.21518272678721292,0.0
-0.019806210421911954,0.0
0.26654459449149304,0.0
0.48474860761425187,0.0
0.603921568627451,0.0
0.6495765621423666,0.0
0.6254062714579995,0.0
0.5730373083085373,0.0
0.4481574731059739,0.0
0.23297474631876097,0.0
-0.020477607385366595,0.0
-0.20578316929884793,0.0
-0.29642175936522464,0.0
-0.36356145571068893,0.0
-0.4072022583352407,0.0
-0.4568856336308843,0.0
-0.48374151216906996,0.0
-0.4773632410162509,0.0
-0.462928206301976,0.0
-0.3927672236209659,0.0
-0.31589227130540926,0.0
-0.2017547875181201,0.0
0.021149004348821242,0.0
0.2950789654383154,0.0
0.5099259937438011,0.0
0.6267490653849087,0.0
0.6576333257038225,0.0
0.6348058289463645,0.0
0.5851224536507209,0.0
0.4696421759365224,0.0
0.2574807354848554,0.0
0.0023498893720912484,0.0
-0.18597695887693597,0.0
-0.2960860608834973,0.0
-0.34811932555123215,0.0
-0.41257343404287783,0.0
-0.4615854123750668,0.0
-0.4971694514381629,0.0
-0.47904173342488743,0.0
-0.4152590218966964,0.0
-0.3796749828336003,0.0
-0.3175707637140459,0.0
-0.20779736018921185,0.0
0.003692683299000534,0.0
0.30112153810940717,0.0
0.5300679026474403,0.0
0.6435339894712748,0.0
0.6680399786373694,0.0
0.6509193560692759,0.0
0.5878080415045395,0.0
0.47769893949797815,0.0
0.2581521324483101,0.0
-0.017792019531548024,0.0
-0.21451132982375828,0.0
-0.315556572823682,0.0
-0.35953307392996103,0.0
-0.4025024795910582,0.0
-0.45587853818570223,0.0
-0.4823987182421607,0.0
-0.4844129091325245,0.0
-0.4407721065079728,0.0
-0.369939726863508,0.0
-0.3064927138170443,0.0
-0.18899824521248187,0.0
0.021149004348821242,0.0
0.29440756847486077,0.0
0.5126115815976195,0.0
0.6341344319829099,0.0
0.6724040588998245,0.0
0.6368200198367284,0.0
0.568337529564355,0.0
0.45487144274052027,0.0
0.2561379415579461,0.0
0.0050354772259098195,0.0
-0.20444037537193865,0.0
-0.30112153810940717,0.0
-0.3555046921492332,0.0
-0.4072022583352407,0.0
-0.45017166399633785,0.0
-0.4877698939497978,0.0
-0.47870603494316016,0.0
-0.4528572518501564,0.0
-0.3884031433585107,0.0
-0.30447852292668043,0.0
-0.19638361181048294,0.0
0.015106431677729458,0.0
0.28500801098649575,0.0
0.49784084840161746,0.0
0.6119783321889066,0.0
0.6589761196307317,0.0
0.6294346532387274,0.0
0.5528953994048981,0.0
0.45487144274052027,0.0
0.24237430380712593,0.0
0.003692683299000534,0.0
-0.18899824521248187,0.0
-0.3064927138170443,0.0
-0.361547264820325,0.0
-0.417944609750515,0.0
-0.4481574731059739,0.0
-0.4743419546807049,0.0
-0.4797131303883421,0.0
-0.4233157854581521,0.0
-0.3830319676508736,0.0
-0.32327763790341035,0.0
-0.20578316929884793,0.0
0.01846341649500267,0.0
0.2950789654383154,0.0
0.5055619134813458,0.0
0.6361486228732738,0.0
0.6797894254978255,0.0
0.6737468528267337,0.0
0.602914473182269,0.0
0.4743419546807049,0.0
0.26016632333867395,0.0
0.004699778744182497,0.0
-0.19034103913939115,0.0
-0.3017929350728618,0.0
-0.3763179980163271,0.0
-0.43875791561760885,0.0
-0.4944838635843442,0.0
-0.5293965056839857,0.0
-0.5300679026474403,0.0
-0.48038452735179676,0.0
-0.4280155642023346,0.0
-0.35751888303959717,0.0
-0.22458228427557791,0.0
-0.0016784924086366065,0.0
0.28970778973067823,0.0
0.5166399633783474,0.0
0.6542763408865492,0.0
0.7173876554512856,0.0
0.6972457465476463,0.0
0.6522621499961851,0.0
0.5367818722819867,0.0
0.31589227130540926,0.0
0.06680399786373693,0.0
-0.1500572213321126,0.0
-0.2514381628137636,0.0
-0.3064927138170443,0.0
-0.3857175555046921,0.0
-0.4562142366674296,0.0
-0.5112687876707103,0.0
-0.4985122453650721,0.0
-0.462928206301976,0.0
-0.41055924315251385,0.0
-0.3561760891126879,0.0
-0.2541237506675822,0.0
-0.020477607385366595,0.0
0.26923018234531165,0.0
0.5132829785610742,0.0
0.6307774471656367,0.0
0.6844892042420081,0.0
0.6824750133516441,0.0
0.5972075989929045,0.0
0.4884412909132525,0.0
0.28970778973067823,0.0
0.03189135576409552,0.0
-0.16818493934538795,0.0
-0.28500801098649575,0.0
-0.33603418020904857,0.0
-0.4004882887006942,-0.05337605859464408
-0.48575570305943383,-0.03843747615777828
-0.5418173495078965,-0.03105210955977722
-0.5468528267338063,-0.021988250553139542
-0.5038834210727092,-0.0005035477225909818
-0.4313725490196079,0.03743038071259632
-0.3467765316243228,0.0775463492790112
-0.23801022354467077,0.10054169527733271
-0.0016784924086366065,0.10054169527733271
0.2890363927672236,0.08577096208133059
0.4971694514381629,0.06697184710460058
0.6515907530327305,0.052201113908598454
0.703288319218738,0.04011596856641489
0.6898603799496451,0.021988250553139542
0.6280918593118181,0.003860532539864194
0.5032120241092546,-0.004196231021591517
0.3152208743419546,-0.004867627985046159
0.05941863126573587,-0.010070954451819639
-0.15475700007629511,-0.028366521705958644
-0.2829938200961318,-0.059250782024872196
-0.350133516441596,-0.09382772564278628
-0.38974593728541995,-0.12605477988860914
-0.45017166399633785,-0.14854657816433967
-0.49985503929198144,-0.16130312046997786
-0.5065690089265278,-0.16264591439688714
-0.47098496986343175,-0.14821087968261232
-0.40115968566414895,-0.12806897077897306
-0.3387197680628672,-0.11329823758297093
-0.23129625391012437,-0.10490577553978789
-0.005706874189364461,-0.09970244907301441
0.29575036240177,-0.09315632867933166
0.5058976119630731,-0.08677805752651253
0.6146639200427252,-0.08342107270923933
0.6871747920958267,-0.08207827878233005
0.675089646753643,-0.0780498970016022
0.6045929655909056,-0.06596475165941862
0.49985503929198144,-0.05387960631723506
0.2843366140230411,-0.04917982757305257
0.03390554665445944,-0.050522621499961846
-0.1708705271992065,-0.049851224536507206
-0.28870069428549633,-0.04414435034714275
-0.35751888303959717,-0.035751888303959714
-0.40854505226215004,-0.02366674296177615
-0.45084306095979243,-0.0021820401312275884
-0.5032120241092546,0.027862973983367664
-0.5099259937438011,0.06495765621423667
-0.4783703364614328,0.0988632028686961
-0.42532997634851605,0.11128404669260701
-0.34811932555123215,0.1032272831311513
-0.24203860532539861,0.08577096208133059
-0.0010070954451819635,0.06932173647669183
0.27225146868085753,0.05555809872587166
0.4985122453650721,0.03743038071259632
0.6233920805676355,0.020981155107957578
0.6596475165941862,0.009903105210955977
0.6670328831921873,0.0011749446860456242
0.6066071564812695,-0.005706874189364461
0.4897840848401617,-0.017959868772411687
0.27493705653467615,-0.041794460975051496
0.020813305867093918,-0.07687495231555656
-0.15542839703974973,-0.11732661936369877
-0.2702372777904936,-0.14653238727397572
-0.3457694361791409,-0.15391775387197681
-0.4025024795910582,-0.147875181200885
-0.46091401541161203,-0.1381399252307927
-0.5152971694514382,-0.12806897077897306
-0.5159685664148927,-0.11564812695506219
-0.45487144274052027,-0.09919890135042343
-0.40988784618905927,-0.08174258030060273
-0.3387197680628672,-0.0703288319218738
-0.22592507820248725,-0.06697184710460058
-0.011078049897001601,-0.06663614862287326
0.30112153810940717,-0.06764324406805522
0.49246967269398023,-0.06663614862287326
0.6247348744945449,-0.060593575951781484
0.6791180285343709,-0.05270466163118945
0.6589761196307317,-0.04783703364614328
0.6059357595178149,-0.044815747310597384
0.4773632410162509,-0.04649423971923399
0.2628519111924925,-0.04649423971923399
0.0157778286411841,-0.04599069199664301
-0.17154192416266117,-0.043472953383688104
-0.2890363927672236,-0.029037918669413288
-0.35349050125886927,0.0015106431677729458
-0.39780270084687575,0.043976501106279084
-0.46225680933852137,0.07905699244678416
-0.5065690089265278,0.09282063019760432
-0.5092545967803463,0.0891279468986038
-0.46359960326543065,0.08174258030060273
-0.3904173342488746,0.07637140459296558
-0.3393911650263218,0.06697184710460058
-0.2306248569466697,0.052201113908598454
-0.0016784924086366065,0.03675898374914168
0.2910505836575875,0.02400244144350347
0.5226825360494392,0.010406652933546959
0.6334630350194552,-0.0028534370946822307
0.6636758983749141,-0.014602883955138474
0.6482337682154573,-0.03172350652323186
0.603921568627451,-0.057572289616235596
0.49884794384679954,-0.0891279468986038
0.27090867475394825,-0.11766231784542608
0.025177386129549097,-0.13847562371252
-0.17557030594338902,-0.14653238727397572
-0.28635080491340503,-0.14283970397497517
-0.35416189822232397,-0.1304188601510643
-0.39914549477378497,-0.11715877012283514
-0.4407721065079728,-0.10591287098496985
-0.5025406271457998,-0.09785610742351414
-0.5018692301823452,-0.08879224841687647
-0.46091401541161203,-0.07872129396505684
-0.4112306401159686,-0.07066453040360113
-0.3346913862821393,-0.06764324406805522
-0.2333104448004883,-0.07100022888532845
-0.007385366598001068,-0.07200732433051041
0.27090867475394825,-0.06462195773250935
0.5032120241092546,-0.056900892652780956
0.6401770046540016,-0.05522240024414436
0.6683756771190966,-0.058915083543144876
0.6596475165941862,-0.06092927443350881
0.5955291065842679,-0.05253681239032577
0.47232776379034097,-0.040451667048142216
0.26251621271076525,-0.028702220187685965
0.022491798275730522,-0.012252994583047227
-0.16348516060120546,0.016449225604638743
-0.2937361715114062,0.053208209353780414
-0.3561760891126879,0.08375677119096665
-0.40183108262760353,0.0988632028686961
-0.4495002670328832,0.09584191653315023
-0.49985503929198144,0.07939269092851148
-0.5233539330128938,0.06294346532387274
-0.4830701152056153,0.049851224536507206
-0.42197299153124274,0.04011596856641489
-0.34274814984359503,0.030380712596322572
-0.21853971160448613,0.019302662699320974
-0.01846341649500267,0.008224612802319372
0.29709315632867933,-0.0035248340581368735
0.5139543755245288,-0.017288471808957043
0.6321202410925459,-0.03776607919432364
0.6912031738765545,-0.06663614862287326
0.6777752346074616,-0.09953459983215075
0.6250705729762721,-0.12504768444342718
0.4991836423285267,-0.13662928206301975
0.278965438315404,-0.13881132219424736
0.022491798275730522,-0.13461509117265583
-0.16583504997329668,-0.12437628747997252
-0.2729228656443122,-0.11229114213778896
-0.3561760891126879,-0.10154879072251469
-0.4213015945677882,-0.09382772564278628
-0.4797131303883421,-0.08879224841687647
-0.5163042648966202,-0.0852674143587396
-0.5159685664148927,-0.08174258030060273
-0.4954909590295263,-0.07536430914778362
-0.42197299153124274,-0.07150377660791943
-0.3467765316243228,-0.06797894254978255
-0.23129625391012437,-0.06126497291523613
0.009063859006637675,-0.05387960631723506
0.2974288548104066,-0.050522621499961846
0.5226825360494392,-0.051865415426871134
0.6489051651789121,-0.05387960631723506
0.6912031738765545,-0.05354390783550774
0.700267032883192,-0.048844129091325246
0.6341344319829099,-0.0323949034866865
0.5152971694514382,-0.003860532539864194
0.2843366140230411,0.035751888303959714
0.022491798275730522,0.07737850003814756
-0.17288471808957045,0.10524147402151522
-0.269565880827039,0.10926985580224306
-0.3440909437705043,0.09651331349660487
-0.4186160067139696,0.07838559548332952
-0.46024261844815745,0.060593575951781484
-0.5136186770428016,0.04666208896009766
-0.5226825360494392,0.04011596856641489
-0.46897077897306777,0.035751888303959714
-0.42465857938506135,0.027023727779049357
-0.3373769741359579,0.01359578850995651
-0.23532463569085216,-0.0035248340581368735
-0.016449225604638743,-0.024338139925230793
0.29440756847486077,-0.053208209353780414
0.5226825360494392,-0.08677805752651253
0.6489051651789121,-0.11900511177233539
0.6898603799496451,-0.14518959334706644
0.6710612649729152,-0.15727473868925002
0.6079499504081788,-0.15492484931715875
0.5079118028534371,-0.14015411612115664
0.2816510261692225,-0.12034790569924468
0.011749446860456245,-0.10457007705806058
-0.17288471808957045,-0.09416342412451362
-0.2890363927672236,-0.08476386663614863
-0.350133516441596,-0.07603570611123828
-0.41257343404287783,-0.07267872129396505
-0.4716563668268864,-0.07402151522087433
-0.5025406271457998,-0.07536430914778362
-0.517311360341802,-0.07150377660791943
-0.47299916075379567,-0.06546120393682765
-0.40854505226215004,-0.061936369878690785
-0.34946211947814143,-0.06025787747005417
-0.23263904783703362,-0.05522240024414436
-0.011749446860456245,-0.04783703364614328
0.2937361715114062,-0.04145876249332417
0.5273823147936216,-0.037094682230869
0.6549477378500038,-0.03172350652323186
0.7053025101091019,-0.01695277332722972
0.6784466315709163,0.01594567788204776
0.630106050202182,0.05958648050659952
0.5038834210727092,0.09013504234378575
0.3014572365911345,0.09903105210955977
0.03994811932555123,0.09047074082551307
-0.16818493934538795,0.07402151522087433
-0.26889448386358433,0.05824368657969024
-0.3551689936675059,0.0473334859235523
-0.40854505226215004,0.03978027008468757
-0.45755703059433883,0.028030823224231328
-0.5139543755245288,0.017288471808957043
-0.517311360341802,0.010238803692683297
-0.5001907377737087,0.0028534370946822307
-0.43405813687342637,-0.009903105210955977
-0.35214770733196,-0.030380712596322572
-0.23532463569085216,-0.060593575951781484
-0.007049668116273747,-0.0963454642557412
0.2719157701991302,-0.12974746318760969
0.5132829785610742,-0.15072861829556725
0.6435339894712748,-0.16063172350652322
0.6858319981689174,-0.16079957274738685
0.6710612649729152,-0.1492179751277943
0.6072785534447243,-0.13142595559624626
0.49985503929198144,-0.11665522240024415
0.27359426260776687,-0.11027695124742502
0.02887006942854963,-0.10826276035706112
-0.16818493934538795,-0.10524147402151522
-0.2907148851758602,-0.1002059967956054
-0.35751888303959717,-0.09483482108796826
-0.4260013733119707,-0.09483482108796826
-0.4823987182421607,-0.0955062180514229
-0.5347676813916227,-0.08946364538033112
-0.5414816510261692,-0.07536430914778362
-0.4944838635843442,-0.06126497291523613
-0.44614328221561,-0.054551003280689715
-0.35281910429541463,-0.04917982757305257
-0.22323949034866863,-0.04515144579232471
0.0023498893720912484,-0.04078736552986953
0.27695124742504,-0.028702220187685965
0.5052262149996185,-0.0011749446860456242
0.6455481803616389,0.04011596856641489
0.6938887617303731,0.07956054016937514
0.7046311131456473,0.10725566491187914
0.6388342107270923,0.11799801632715344
0.5045548180361639,0.11027695124742502
0.29440756847486077,0.092484931715877
0.03189135576409552,0.07536430914778362
-0.15072861829556725,0.06260776684214542
-0.25345235370412755,0.0528725108720531
-0.3350270847638666,0.04599069199664301
-0.41055924315251385,0.03944457160296025
-0.4743419546807049,0.028030823224231328
-0.5186541542687114,0.016617074845502403
-0.5226825360494392,0.00016784924086366064
-0.4864271000228885,-0.026352330815594724
-0.4300297550926986,-0.05857938506141757
-0.36725413900968945,-0.09181353475242236
-0.24472419317921723,-0.11497672999160755
-0.012420843823910887,-0.12336919203479056
0.28500801098649575,-0.1232013427939269
0.5213397421225299,-0.11699092088197145
0.6589761196307317,-0.11195544365606165
0.716716258487831,-0.1096055542839704
0.6905317769130999,-0.10255588616769665
0.6549477378500038,-0.0955062180514229
0.5283894102388037,-0.09030289158464942
0.3031357289997711,-0.08543526359960325
0.050690470740825506,-0.07939269092851148
-0.1534142061493858,-0.07402151522087433
-0.2568093385214008,-0.074189364461738
-0.3279774166475929,-0.0780498970016022
-0.4072022583352407,-0.07905699244678416
-0.4750133516441596,-0.07368581673914701
-0.5246967269398031,-0.06327916380560006
-0.5105973907072556,-0.049347676813916226
-0.4797131303883421,-0.03961242084382391
-0.42868696116578925,-0.03508049134050507
-0.34879072251468685,-0.030380712596322572
-0.23297474631876097,-0.013092240787365528
-0.0023498893720912484,0.0213168535896849
0.28030823224231327,0.06294346532387274
0.5152971694514382,0.09449912260624094
0.6465552758068207,0.1032272831311513
0.7046311131456473,0.09382772564278628
0.6972457465476463,0.08644235904478523
0.6287632562752727,0.08358892195010299
0.5220111390859845,0.07637140459296558
0.30582131685358965,0.06411841000991834
0.043305104142824444,0.053208209353780414
-0.15744258793011368,0.044815747310597384
-0.2823224231326772,0.03675898374914168
-0.33334859235523,0.025009536888685433
-0.406530861371786,0.0052033264667734795
-0.48273441672388795,-0.023834592202639806
-0.5347676813916227,-0.05790798809796292
-0.5347676813916227,-0.09315632867933166
-0.4971694514381629,-0.12236209658960862
-0.44345769436179144,-0.13713282978561073
-0.36826123445487147,-0.1411612115663386
-0.25949492637521937,-0.1364614328221561
-0.024505989166094453,-0.1257190814068818
0.2729228656443122,-0.11631952391851681
0.5018692301823452,-0.11027695124742502
0.6515907530327305,-0.10926985580224306
0.6935530632486456,-0.10826276035706112
0.6831464103150988,-0.10289158464942397
0.6274204623483635,-0.09684901197833219
0.5085831998168918,-0.09349202716105898
0.3105210955977722,-0.09013504234378575
0.040283817807278556,-0.08509956511787593
-0.16549935149156939,-0.0797283894102388
-0.2796368352788586,-0.07267872129396505
-0.3561760891126879,-0.06260776684214542
-0.4112306401159686,-0.05471885252155337
-0.4783703364614328,-0.051361867704280154
-0.5273823147936216,-0.048844129091325246
-0.5354390783550775,-0.04515144579232471
-0.4944838635843442,-0.03172350652323186
-0.4360723277637903,-0.007553215838864729
-0.3632257572289616,0.028702220187685965
-0.2299534599832151,0.06898603799496453
-0.01376363775082017,0.09584191653315023
0.2756084534981307,0.1032272831311513
0.5038834210727092,0.09567406729228656
0.6428625925078203,0.08107118333714809
0.713694972152285,0.06831464103150987
0.686503395132372,0.05992217898832684
0.622720683604181,0.05085831998168917
0.5085831998168918,0.03944457160296025
0.28567940794995034,0.02853437094682231
0.037262531471732654,0.017792019531548024
-0.16617074845502405,0.006210421911955443
-0.28567940794995034,-0.011245899137865261
-0.3555046921492332,-0.03978027008468757
-0.41727321278706037,-0.07737850003814756
-0.48709849698634317,-0.11229114213778896
-0.5434958419165331,-0.12991531242847335
-0.55390249485008,-0.13377584496833753
-0.529732204165713,-0.13579003585870145
-0.46494239719234,-0.13444724193179217
-0.3904173342488746,-0.1270618753337911
-0.2705729762722209,-0.11564812695506219
-0.01913481345845731,-0.10691996643015184
0.2571450370031281,-0.10087739375906005
0.4951552605477989,-0.09617761501487754
0.6361486228732738,-0.0955062180514229
0.7073167009994659,-0.09349202716105898
0.7120164797436483,-0.08711375600823987
0.6280918593118181,-0.07821774624246586
0.5032120241092546,-0.07133592736705577
0.28970778973067823,-0.06999313344014649
0.03927672236209659,-0.06865033951323721
-0.1601281757839322,-0.06663614862287326
-0.26654459449149304,-0.0639505607690547
-0.33536278324559393,-0.057236591134508276
-0.4139162279697871,-0.04783703364614328
-0.4813916227969787,-0.04095521477073319
-0.5327534905012589,-0.027023727779049357
-0.5243610284580758,0.004531929503318838
-0.4750133516441596,0.04515144579232471
-0.43405813687342637,0.07637140459296558
-0.3508049134050507,0.09349202716105898
-0.2339818417639429,0.09382772564278628
0.004028381780727854,0.08543526359960325
0.3179064621957733,0.07267872129396505
0.5253681239032578,0.05471885252155337
0.6630045014114595,0.03608758678568704
0.7247730220492866,0.028702220187685965
0.7123521782253758,0.027023727779049357
0.6589761196307317,0.021652552071412222
0.5233539330128938,0.011581597619592583
0.3098496986343175,-0.0052033264667734795
0.0473334859235523,-0.029877164873731592
-0.15140001525902191,-0.060593575951781484
-0.2843366140230411,-0.09315632867933166
-0.35214770733196,-0.12370489051651787
-0.406530861371786,-0.1475394827191577
-0.4897840848401617,-0.15727473868925002
-0.5468528267338063,-0.1512321660181582
-0.5522240024414434,-0.1398184176394293
-0.5079118028534371,-0.13109025711451894
-0.43540093080033565,-0.1257190814068818
-0.37228961623559925,-0.11833371480888075
-0.24875257495994504,-0.10843060959792476
-0.010070954451819639,-0.09953459983215075
0.3017929350728618,-0.09013504234378575
0.5468528267338063,-0.08241397726405737
0.6603189135576409,-0.07872129396505684
0.7274586099031052,-0.07435721370260165
0.7093308918898298,-0.06898603799496453
0.6411841000991837,-0.06663614862287326
0.5273823147936216,-0.06378271152819104
0.30447852292668043,-0.058915083543144876
0.051361867704280154,-0.04783703364614328
-0.16314946211947812,-0.037094682230869
-0.27426565957122145,-0.03172350652323186
-0.34744792858777757,-0.025009536888685433
-0.4025024795910582,-0.009567406729228655
-0.46225680933852137,0.019974059662775615
-0.5394674601358053,0.06160067139696345
-0.5401388570992599,0.09584191653315023
-0.5052262149996185,0.10977340352483406
-0.43808651865415427,0.10440222781719691
-0.3568474860761425,0.08845654993514916
-0.2527809567406729,0.0694895857175555
-0.0003356984817273213,0.05488670176241703
0.2984359502555886,0.044815747310597384
0.5240253299763484,0.03172350652323186
0.6797894254978255,0.019974059662775615
0.7254444190127411,0.020477607385366595
0.7194018463416494,0.0213168535896849
0.6455481803616389,0.003692683299000534
0.5146257724879835,-0.029709315632867935
0.29172198062104215,-0.06697184710460058
0.03994811932555123,-0.10154879072251469
-0.16281376363775082,-0.1304188601510643
-0.2920576791027695,-0.1453574425879301
-0.37363241016250853,-0.14485389486533912
-0.43472953383688107,-0.13310444800488286
-0.48709849698634317,-0.11749446860456245
-0.5367818722819867,-0.10154879072251469
-0.5555809872587167,-0.092484931715877
-0.5092545967803463,-0.08879224841687647
-0.45017166399633785,-0.08342107270923933
-0.3823605706874189,-0.0767071030746929
-0.2514381628137636,-0.06797894254978255
-0.011749446860456245,-0.062272068360418105
0.2923933775844968,-0.06327916380560006
0.5152971694514382,-0.06999313344014649
0.6609903105210956,-0.07536430914778362
0.7288014038300145,-0.0711680781261921
0.7194018463416494,-0.060761425192645144
0.6562905317769131,-0.048508430609597926
0.5072404058899825,-0.041123064011596856
0.28970778973067823,-0.0387731746395056
0.050019073777370866,-0.03508049134050507
-0.14670023651483938,-0.021652552071412222
-0.2715800717174029,0.005874723430228122
-0.36591134508278017,0.04213015945677882
-0.4300297550926986,0.07603570611123828
-0.4877698939497978,0.10054169527733271
-0.5320820935378041,0.10725566491187914
-0.5347676813916227,0.09651331349660487
-0.5213397421225299,0.07737850003814756
-0.45487144274052027,0.05958648050659952
-0.3696040283817807,0.050186923018234526
-0.23263904783703362,0.043472953383688104
0.009735255970092317,0.033401998931868467
0.29776455329213397,0.0213168535896849
0.5310749980926222,0.00788891432059205
0.6515907530327305,-0.003692683299000534
0.7019455252918287,-0.01829556725413901
0.6992599374380102,-0.044480048828870064
0.6401770046540016,-0.08274967574578469
0.5099259937438011,-0.12169069962615398
0.2843366140230411,-0.14384679942015716
0.044983596551461044,-0.14586099031052108
-0.14569314106965742,-0.13713282978561073
-0.26688029297322036,-0.1232013427939269
-0.361547264820325,-0.10994125276569772
-0.4313725490196079,-0.10440222781719691
-0.4830701152056153,-0.10222018768596933
-0.5515526054779888,-0.10054169527733271
-0.5495384145876249,-0.09684901197833219
-0.4985122453650721,-0.08946364538033112
-0.44614328221561,-0.08224612802319371
-0.37363241016250853,-0.0780498970016022
-0.259159227893492,-0.07771419851987486
-0.008392462043183033,-0.07905699244678416
0.30045014114595253,-0.07939269092851148
0.5273823147936216,-0.07821774624246586
0.6603189135576409,-0.07167162584878309
0.7086594949263753,-0.05958648050659952
0.7059739070725567,-0.050522621499961846
0.6536049439230944,-0.04548714427405204
0.5324177920195314,-0.03776607919432364
0.29575036240177,-0.016449225604638743
0.02719157701991302,0.019974059662775615
-0.16617074845502405,0.05992217898832684
-0.28567940794995034,0.08577096208133059
-0.34274814984359503,0.09013504234378575
-0.4152590218966964,0.08375677119096665
-0.4891126878767071,0.07905699244678416
-0.5455100328068971,0.07469291218432898
-0.5646448462653544,0.06428625925078202
-0.5139543755245288,0.04548714427405204
-0.45218585488670177,0.02652018005645838
-0.3790035858701457,0.011581597619592583
-0.24740978103303574,0.0025177386129549098
-0.015442130159456776,-0.0015106431677729458
0.30045014114595253,-0.011078049897001601
0.5367818722819867,-0.032730601968413826
0.6710612649729152,-0.06126497291523613
0.7153734645609215,-0.09047074082551307
0.6985885404745555,-0.11900511177233539
0.6562905317769131,-0.13780422674906534
0.5314106965743495,-0.14250400549324788
0.3293202105745021,-0.1351186388952468
0.06411841000991834,-0.12185854886701762
-0.14938582436865797,-0.11430533302815289
-0.2611734187838559,-0.11296253910124363
-0.34476234073395895,-0.11161974517433432
-0.4139162279697871,-0.1079270618753338
-0.4773632410162509,-0.09953459983215075
-0.5481956206607157,-0.0908064393072404
-0.5582665751125353,-0.0844281681544213
-0.5334248874647135,-0.08207827878233005
-0.44412909132524603,-0.08207827878233005
-0.3561760891126879,-0.07939269092851148
-0.24740978103303574,-0.07335011825741969
-0.011078049897001601,-0.06562905317769131
0.28836499580376895,-0.05656519417105363
0.5233539330128938,-0.05253681239032577
0.6630045014114595,-0.04716563668268864
0.7274586099031052,-0.03508049134050507
0.7019455252918287,-0.01359578850995651
0.6327916380560006,0.018631265735866327
0.5119401846341649,0.05589379720759898
0.27090867475394825,0.08644235904478523
0.02349889372091249,0.10121309224078735
-0.16549935149156939,0.09584191653315023
-0.27426565957122145,0.08577096208133059
-0.3400625619897764,0.07687495231555656
-0.4213015945677882,0.06428625925078202
-0.47904173342488743,0.051529716945143814
-0.5280537117570764,0.035751888303959714
-0.5445029373617151,0.020309758144502935
-0.5126115815976195,0.01326009002822919
-0.44547188525215525,0.013092240787365528
-0.34845502403295947,0.006546120393682764
-0.23532463569085216,-0.016617074845502403
0.0010070954451819635,-0.05387960631723506
0.3014572365911345,-0.0955062180514229
0.5327534905012589,-0.13058670939192796
0.6683756771190966,-0.14518959334706644
0.7207446402685587,-0.14267185473411154
0.7214160372320134,-0.13377584496833753
0.6626688029297322,-0.12001220721751735
0.5354390783550775,-0.1065842679484245
0.29642175936522464,-0.1002059967956054
0.020813305867093918,-0.09752040894178682
-0.15744258793011368,-0.09181353475242236
-0.2823224231326772,-0.08543526359960325
-0.36221866178377965,-0.08274967574578469
-0.4411078049897001,-0.08241397726405737
-0.5112687876707103,-0.07402151522087433
-0.5428244449530785,-0.06260776684214542
-0.5542381933318073,-0.05589379720759898
-0.5226825360494392,-0.056900892652780956
-0.4656137941557945,-0.05958648050659952
-0.38638895246814675,-0.05857938506141757
-0.2480811779964904,-0.0520332646677348
-0.014435034714274816,-0.044815747310597384
0.2870222018768597,-0.041794460975051496
0.5166399633783474,-0.0323949034866865
0.6475623712520028,-0.006546120393682764
0.6979171435111009,0.028030823224231328
0.686503395132372,0.06294346532387274
0.6576333257038225,0.0891279468986038
0.5273823147936216,0.10389868009460593
0.28500801098649575,0.10708781567101548
0.014435034714274816,0.09701686121919585
-0.17892729076066224,0.0800640878919661
-0.2702372777904936,0.06160067139696345
-0.35751888303959717,0.04213015945677882
-0.4213015945677882,0.027359426260776684
-0.49347676813916225,0.02333104448004883
-0.5582665751125353,0.02400244144350347
-0.5488670176241703,0.021820401312275882
-0.517311360341802,0.011917296101319903
-0.4662851911192492,-0.010910200656137941
-0.3769893949797818,-0.049851224536507206
-0.24203860532539861,-0.09349202716105898
-0.007049668116273747,-0.12504768444342718
0.29642175936522464,-0.1398184176394293
0.547524223697261,-0.14468604562447548
0.6656900892652781,-0.13612573434042877
0.7267872129396507,-0.11934081025406272
0.7153734645609215,-0.10289158464942397
0.6482337682154573,-0.09282063019760432
0.5421530479896238,-0.09147783627069504
0.30280003051804383,-0.09500267032883192
0.029205767910276948,-0.09701686121919585
-0.16079957274738685,-0.09819180590524147
-0.2705729762722209,-0.0988632028686961
-0.3313344014648661,-0.09500267032883192
-0.4152590218966964,-0.08694590676737621
-0.5032120241092546,-0.07704280155642022
-0.5485313191424429,-0.06932173647669183
-0.5596093690394446,-0.06932173647669183
-0.5166399633783474,-0.06797894254978255
-0.44647898069733727,-0.06126497291523613
-0.3508049134050507,-0.053208209353780414
-0.23129625391012437,-0.04414435034714275
0.010406652933546959,-0.025680933852140077
0.30582131685358965,0.002014190890363927
0.5421530479896238,0.035751888303959714
0.691874570840009,0.0703288319218738
0.7207446402685587,0.09114213778896772
0.7100022888532844,0.09416342412451362
0.6509193560692759,0.08560311284046693
0.5246967269398031,0.07435721370260165
0.3138780804150454,0.06361486228732739
0.02887006942854963,0.05085831998168917
-0.17422751201647974,0.03743038071259632
-0.29306477454795143,0.023163195239185166
-0.3581902800030518,0.013931486991683832
-0.417944609750515,0.011917296101319903
-0.49314106965743487,0.0052033264667734795
-0.5441672388799876,-0.01527428091859312
-0.5542381933318073,-0.04783703364614328
-0.5136186770428016,-0.0861066605630579
-0.45151445792324707,-0.12185854886701762
-0.36826123445487147,-0.14384679942015716
-0.2178683146410315,-0.1492179751277943
0.0050354772259098195,-0.14384679942015716
0.3017929350728618,-0.13276874952315554
0.547524223697261,-0.11833371480888075
0.6797894254978255,-0.10121309224078735
0.7502861066605631,-0.09047074082551307
0.7039597161821927,-0.08711375600823987
0.6267490653849087,-0.08577096208133059
0.5058976119630731,-0.08291752498664834
0.2836652170595865,-0.08241397726405737
0.033234149691004806,-0.08090333409628443
-0.17389181353475242,-0.07637140459296558
-0.28668650339513235,-0.07402151522087433
-0.36356145571068893,-0.07603570611123828
-0.43540093080033565,-0.07620355535210192
-0.5058976119630731,-0.07133592736705577
-0.5498741130693523,-0.06697184710460058
-0.5431601434348058,-0.06378271152819104
-0.5206683451590752,-0.057236591134508276
-0.4528572518501564,-0.04582284275577936
-0.36826123445487147,-0.025345235370412753
-0.2339818417639429,0.006378271152819104
0.02349889372091249,0.04531929503318838
0.30582131685358965,0.07486076142519264
0.5314106965743495,0.08946364538033112
0.6636758983749141,0.092484931715877
0.7177233539330129,0.08543526359960325
0.7187304493781949,0.07335011825741969
0.6452124818799114,0.06260776684214542
0.5280537117570764,0.05085831998168917
0.2890363927672236,0.03743038071259632
0.027862973983367664,0.0213168535896849
-0.1534142061493858,0.004867627985046159
-0.2581521324483101,-0.006881818875410085
-0.3467765316243228,-0.018631265735866327
-0.43472953383688107,-0.03440909437705043
-0.4951552605477989,-0.05790798809796292
-0.5434958419165331,-0.0882887006942855
-0.538124666208896,-0.11833371480888075
-0.49582665751125343,-0.13679713130388343
-0.4612497138933394,-0.1411612115663386
-0.3816891737239643,-0.13243305104142825
-0.25009536888685435,-0.11497672999160755
-0.0003356984817273213,-0.09701686121919585
0.30447852292668043,-0.09013504234378575
0.5126115815976195,-0.08677805752651253
0.6656900892652781,-0.08023193713282978
0.7247730220492866,-0.07536430914778362
0.7012741283283741,-0.07737850003814756
0.6509193560692759,-0.08107118333714809
0.5179827573052568,-0.08207827878233005
0.2950789654383154,-0.07737850003814756
0.029205767910276948,-0.06999313344014649
-0.17154192416266117,-0.060593575951781484
-0.2836652170595865,-0.05253681239032577
-0.34341954680704967,-0.04917982757305257
-0.4152590218966964,-0.044480048828870064
-0.5045548180361639,-0.03776607919432364
-0.564309147783627,-0.030380712596322572
-0.566323338673991,-0.01292439154650187
-0.5139543755245288,0.01913481345845731
-0.45151445792324707,0.06025787747005417
-0.37665369649805447,0.09433127336537728
-0.23129625391012437,0.10910200656137943
0.022491798275730522,0.10440222781719691
0.32394903486686505,0.08879224841687647
0.5589379720759899,0.07905699244678416
0.6898603799496451,0.07435721370260165
0.7422293430991073,0.06294346532387274
0.7073167009994659,0.04750133516441596
0.6455481803616389,0.033066300450141146
0.528725108720531,0.019806210421911954
0.3017929350728618,0.007553215838864729
0.051361867704280154,-0.004196231021591517
-0.14938582436865797,-0.022323949034866862
-0.26889448386358433,-0.05253681239032577
-0.34946211947814143,-0.08879224841687647
-0.40854505226215004,-0.12034790569924468
-0.49179827573052565,-0.14183260852979326
-0.5582665751125353,-0.15391775387197681
-0.546517128252079,-0.15492484931715875
-0.5146257724879835,-0.1414969100480659
-0.4568856336308843,-0.12169069962615398
-0.3756466010528725,-0.1062485694666972
-0.24774547951476314,-0.09819180590524147
0.0023498893720912484,-0.09752040894178682
0.29910734721904325,-0.09785610742351414
0.5300679026474403,-0.08946364538033112
0.6710612649729152,-0.0788891432059205
0.722087434195468,-0.0703288319218738
0.7059739070725567,-0.06814679179064621
0.6341344319829099,-0.07133592736705577
0.5038834210727092,-0.07150377660791943
0.28567940794995034,-0.06529335469596398
0.03054856183718624,-0.05790798809796292
-0.1641565575646601,-0.054551003280689715
-0.29172198062104215,-0.05656519417105363
-0.3568474860761425,-0.05656519417105363
-0.4236514839398794,-0.04213015945677882
-0.4823987182421607,-0.012252994583047227
-0.5461814297703517,0.025680933852140077
-0.554909590295262,0.058915083543144876
-0.5052262149996185,0.08090333409628443
-0.46359960326543065,0.09114213778896772
-0.37363241016250853,0.09416342412451362
-0.2366674296177615,0.09449912260624094
-0.0003356984817273213,0.0908064393072404
0.30447852292668043,0.07838559548332952
0.5233539330128938,0.06361486228732739
0.6489051651789121,0.050186923018234526
0.7059739070725567,0.03810177767605096
0.6965743495841917,0.025177386129549097
0.6254062714579995,0.010574502174410621
0.4897840848401617,-0.004196231021591517
0.2776226443884947,-0.028030823224231328
0.020477607385366595,-0.06160067139696345
-0.16818493934538795,-0.09617761501487754
-0.28500801098649575,-0.12672617685206378
-0.3628900587472343,-0.14586099031052108
-0.4236514839398794,-0.14955367360952163
-0.5032120241092546,-0.13847562371252
-0.5515526054779888,-0.1240405889982452
-0.554909590295262,-0.11631952391851681
-0.5220111390859845,-0.11161974517433432
-0.43540093080033565,-0.10289158464942397
-0.36826123445487147,-0.09449912260624094
-0.23801022354467077,-0.09097428854810408
0.023163195239185166,-0.09617761501487754
0.32126344701304643,-0.1032272831311513
0.547524223697261,-0.10255588616769665
0.6609903105210956,-0.09483482108796826
0.7308155947203783,-0.08476386663614863
0.7274586099031052,-0.0775463492790112
0.6589761196307317,-0.07100022888532845
0.5112687876707103,-0.06411841000991834
0.27225146868085753,-0.05790798809796292
0.02853437094682231,-0.054551003280689715
-0.1601281757839322,-0.048844129091325246
-0.2608377203021286,-0.03373769741359579
-0.34073395895323105,-0.006210421911955443
-0.4233157854581521,0.03205920500495917
-0.49246967269398023,0.07167162584878309
-0.5656519417105363,0.09483482108796826
-0.556923781185626,0.09651331349660487
-0.5159685664148927,0.08560311284046693
-0.46494239719234,0.07637140459296558
-0.3884031433585107,0.07167162584878309
-0.2608377203021286,0.06546120393682765
0.004699778744182497,0.050186923018234526
0.307164110780499,0.03105210955977722
0.5401388570992599,0.019974059662775615
0.6690470740825513,0.01594567788204776
0.7368581673914703,0.013931486991683832
0.7355153734645609,0.0011749446860456242
0.6569619287403676,-0.029037918669413288
0.5186541542687114,-0.07267872129396505
0.28970778973067823,-0.11296253910124363
0.037262531471732654,-0.13713282978561073
-0.14804303044174866,-0.14653238727397572
-0.2756084534981307,-0.14854657816433967
-0.3323414969100481,-0.1406576638437476
-0.41593041886015103,-0.1257190814068818
-0.4864271000228885,-0.11027695124742502
-0.5414816510261692,-0.09500267032883192
-0.5656519417105363,-0.08375677119096665
-0.4985122453650721,-0.07872129396505684
-0.4206301976043335,-0.07905699244678416
-0.35886167696650645,-0.08308537422751203
-0.22793926909285112,-0.08744945448996719
0.013092240787365528,-0.08812085145342184
0.3165636682688639,-0.08274967574578469
0.5488670176241703,-0.07486076142519264
0.6838178072785533,-0.06999313344014649
0.7261158159761959,-0.06529335469596398
0.712687876707103,-0.060593575951781484
0.646890974288548,-0.05337605859464408
0.5018692301823452,-0.044480048828870064
0.2796368352788586,-0.030716411078049892
0.019806210421911954,-0.006881818875410085
-0.16549935149156939,0.02668802929732204
-0.2796368352788586,0.06160067139696345
-0.37665369649805447,0.08979934386205844
-0.42197299153124274,0.10457007705806058
-0.4985122453650721,0.1032272831311513
-0.566323338673991,0.09147783627069504
-0.5575951781490806,0.07704280155642022
-0.5132829785610742,0.06562905317769131
-0.44412909132524603,0.05589379720759898
-0.37094682230868997,0.04682993820096131
-0.250766765850309,0.03743038071259632
0.0023498893720912484,0.02265964751659419
0.3085069047074082,0.009231708247501335
0.5401388570992599,-0.0008392462043183033
0.6630045014114595,-0.018631265735866327
0.7261158159761959,-0.04649423971923399
0.7173876554512856,-0.0767071030746929
0.6656900892652781,-0.10490577553978789
0.5307392996108949,-0.12135500114442664
0.27359426260776687,-0.1287403677424277
0.02584878309300374,-0.12739757381551842
-0.16617074845502405,-0.11699092088197145
-0.2823224231326772,-0.10490577553978789
-0.3689326314183261,-0.09500267032883192
-0.43472953383688107,-0.08778515297169451
-0.4813916227969787,-0.08426031891355765
-0.5468528267338063,-0.08207827878233005
-0.5589379720759899,-0.08274967574578469
-0.5226825360494392,-0.08342107270923933
-0.4682993820096132,-0.08241397726405737
-0.3763179980163271,-0.07956054016937514
-0.24539559014267184,-0.07469291218432898
0.0050354772259098195,-0.0703288319218738
0.307164110780499,-0.06361486228732739
0.5408102540627145,-0.05790798809796292
0.6777752346074616,-0.057236591134508276
0.721080338750286,-0.05656519417105363
0.7402151522087433,-0.049851224536507206
0.6693827725642786,-0.03256275272755016
0.5085831998168918,-0.004196231021591517
0.27225146868085753,0.03205920500495917
0.022827496757457846,0.06730754558632791
-0.14938582436865797,0.08509956511787593
-0.2662088960097657,0.08509956511787593
-0.3393911650263218,0.0797283894102388
-0.419958800640879,0.07100022888532845
-0.4951552605477989,0.05656519417105363
-0.5267109178301671,0.04414435034714275
-0.5367818722819867,0.03608758678568704
-0.5072404058899825,0.030045014114595252
-0.4495002670328832,0.025345235370412753
-0.369939726863508,0.018631265735866327
-0.2366674296177615,0.0035248340581368735
0.010406652933546959,-0.02333104448004883
0.3313344014648661,-0.05555809872587166
0.5502098115510795,-0.08677805752651253
0.6710612649729152,-0.11564812695506219
0.7173876554512856,-0.1381399252307927
0.7059739070725567,-0.15022507057297627
0.6603189135576409,-0.1512321660181582
0.534096284428168,-0.14015411612115664
0.29440756847486077,-0.12437628747997252
0.026184481574731057,-0.11061264972915236
-0.15878538185702296,-0.10154879072251469
-0.26251621271076525,-0.0963454642557412
-0.34946211947814143,-0.09214923323414968
-0.417944609750515,-0.09282063019760432
-0.49985503929198144,-0.09483482108796826
-0.5656519417105363,-0.09114213778896772
-0.5669947356374456,-0.08409246967269397
-0.5280537117570764,-0.07771419851987486
-0.4407721065079728,-0.07737850003814756
-0.37027542534523533,-0.07704280155642022
-0.24942397192339977,-0.07133592736705577
0.0016784924086366065,-0.064789806973373
0.307164110780499,-0.05656519417105363
0.5458457312886243,-0.049515526054779886
0.677103837644007,-0.042465857938506144
0.7214160372320134,-0.025680933852140077
0.7140306706340124,0.008728160524910353
0.6556191348134585,0.05488670176241703
0.5240253299763484,0.09282063019760432
0.28970778973067823,0.10826276035706112
0.022491798275730522,0.1062485694666972
-0.18295567254139009,0.09567406729228656
-0.2836652170595865,0.08409246967269397
-0.36423285267414357,0.07536430914778362
-0.43808651865415427,0.06965743495841917
-0.4938124666208897,0.06344701304646372
-0.5589379720759899,0.05354390783550774
-0.5649805447470816,0.04078736552986953
-0.5267109178301671,0.029037918669413288
-0.46897077897306777,0.014938582436865796
-0.3618829633020523,-0.010910200656137941
-0.24472419317921723,-0.049347676813916226
0.007049668116273747,-0.08627450980392155
0.3085069047074082,-0.11245899137865262
0.5361104753185321,-0.12672617685206378
0.6791180285343709,-0.13713282978561073
0.731486991683833,-0.13914702067597465
0.7086594949263753,-0.12857251850156404
0.6348058289463645,-0.11430533302815289
0.4884412909132525,-0.1062485694666972
0.25479514763103683,-0.10423437857633323
0.0006713969634546426,-0.10255588616769665
-0.18295567254139009,-0.0988632028686961
-0.29877164873731593,-0.09416342412451362
-0.36557564660105285,-0.08896009765774013
-0.4374151216906996,-0.08375677119096665
-0.5058976119630731,-0.08039978637369342
-0.5401388570992599,-0.07872129396505684
-0.5616235599298084,-0.07821774624246586
-0.5186541542687114,-0.07284657053482871
-0.45050736247806505,-0.06663614862287326
-0.37161821927214467,-0.059250782024872196
-0.23129625391012437,-0.05589379720759898
0.0023498893720912484,-0.051865415426871134
0.29709315632867933,-0.03373769741359579
0.5327534905012589,-0.0021820401312275884
0.6804608224612801,0.03860532539864195
0.7489433127336537,0.07704280155642022
0.7083237964446479,0.09785610742351414
0.6650186923018233,0.09835965514610515
0.5280537117570764,0.08409246967269397
0.2843366140230411,0.06965743495841917
0.04061951628900587,0.05790798809796292
-0.15140001525902191,0.044815747310597384
-0.26150911726558324,0.033401998931868467
-0.35953307392996103,0.028366521705958644
-0.42465857938506135,0.02584878309300374
-0.48542000457770657,0.017624170290684367
-0.5320820935378041,0.006546120393682764
-0.5421530479896238,-0.010238803692683297
-0.5273823147936216,-0.03776607919432364
-0.46695658808270396,-0.07167162584878309
-0.37799649042496375,-0.10826276035706112
-0.23028915846494238,-0.13847562371252
0.023834592202639806,-0.1492179751277943
0.305149919890135,-0.1414969100480659
0.5367818722819867,-0.12504768444342718
0.6784466315709163,-0.11296253910124363
0.724101625085832,-0.11128404669260701
0.7160448615243763,-0.11329823758297093
0.6509193560692759,-0.11161974517433432
0.528725108720531,-0.10238803692683297
0.2870222018768597,-0.09013504234378575
0.03256275272755016,-0.08241397726405737
-0.15072861829556725,-0.08342107270923933
-0.2621805142290379,-0.08543526359960325
-0.34744792858777757,-0.07838559548332952
-0.4360723277637903,-0.06764324406805522
-0.5119401846341649,-0.05992217898832684
-0.5696803234912642,-0.05622949568932631
-0.5589379720759899,-0.05253681239032577
-0.5186541542687114,-0.048508430609597926
-0.45352864881361105,-0.044480048828870064
-0.3602044708934157,-0.03776607919432364
-0.23532463569085216,-0.021820401312275882
0.017792019531548024,0.009735255970092317
0.31992065308613715,0.053208209353780414
0.534096284428168,0.08711375600823987
0.6690470740825513,0.09852750438696878
0.7069810025177385,0.09181353475242236
0.703288319218738,0.08090333409628443
0.6522621499961851,0.07217517357137408
0.5139543755245288,0.06428625925078202
0.2910505836575875,0.055390249485008015
0.007721065079728388,0.04213015945677882
-0.18295567254139009,0.03172350652323186
-0.2876935988403143,0.030716411078049892
-0.350133516441596,0.027862973983367664
-0.42532997634851605,0.010910200656137941
-0.5132829785610742,-0.019806210421911954
-0.5609521629663539,-0.05622949568932631
-0.5716945143816281,-0.09114213778896772
-0.528725108720531,-0.12034790569924468
-0.45587853818570223,-0.1351186388952468
-0.37363241016250853,-0.13931486991683834
-0.22592507820248725,-0.13881132219424736
0.023163195239185166,-0.13579003585870145
0.3313344014648661,-0.12773327229724574
0.5656519417105363,-0.11699092088197145
0.6972457465476463,-0.10641641870756083
0.7489433127336537,-0.09449912260624094
0.7227588311589227,-0.08207827878233005
0.6428625925078203,-0.07536430914778362
0.5220111390859845,-0.0800640878919661
0.2950789654383154,-0.09047074082551307
0.026184481574731057,-0.09500267032883192
-0.1708705271992065,-0.09013504234378575
-0.2662088960097657,-0.0780498970016022
-0.35214770733196,-0.06462195773250935
-0.4206301976043335,-0.05656519417105363
-0.4961623559929808,-0.05488670176241703
-0.5528953994048981,-0.05387960631723506
-0.5481956206607157,-0.048508430609597926
-0.5307392996108949,-0.03508049134050507
-0.47232776379034097,-0.008224612802319372
-0.37766079194323643,0.03138780804150454
-0.24069581139848936,0.06797894254978255
0.023834592202639806,0.08979934386205844
0.32193484397650113,0.09919890135042343
0.5448386358434424,0.09785610742351414
0.6744182497901884,0.08879224841687647
0.7254444190127411,0.07553215838864728
0.7133592736705576,0.060593575951781484
0.6371557183184557,0.04548714427405204
0.5018692301823452,0.033401998931868467
0.278965438315404,0.02668802929732204
0.033234149691004806,0.0213168535896849
-0.16482795452811475,0.012588693064774548
-0.27426565957122145,-0.004196231021591517
-0.34811932555123215,-0.036423285267414354
-0.4333867399099718,-0.07704280155642022
-0.4971694514381629,-0.11464103150988021
-0.5535667963683528,-0.13713282978561073
-0.5676661326009002,-0.14384679942015716
-0.5253681239032578,-0.14317540245670252
-0.47367055771725036,-0.13914702067597465
-0.37665369649805447,-0.13243305104142825
-0.23263904783703362,-0.12387273975738157
0.013092240787365528,-0.11229114213778896
0.32629892423895623,-0.09651331349660487
0.5434958419165331,-0.08744945448996719
0.675089646753643,-0.08845654993514916
0.7375295643549249,-0.09365987640192262
0.7247730220492866,-0.09617761501487754
0.6589761196307317,-0.09047074082551307
0.5152971694514382,-0.08174258030060273
0.2729228656443122,-0.07519645990691995
0.0050354772259098195,-0.07133592736705577
-0.16684214541847867,-0.06999313344014649
-0.2813153276874952,-0.06462195773250935
-0.361547264820325,-0.054551003280689715
-0.43405813687342637,-0.044480048828870064
-0.5186541542687114,-0.033401998931868467
-0.5575951781490806,-0.017959868772411687
-0.5596093690394446,0.009567406729228655
-0.5267109178301671,0.05085831998168917
-0.4743419546807049,0.09181353475242236
-0.39679560540169373,0.11363393606469825
-0.23532463569085216,0.11396963454642556
0.03189135576409552,0.1065842679484245
0.3259632257572289,0.09315632867933166
0.547524223697261,0.07553215838864728
0.6854962996871901,0.06126497291523613
0.7489433127336537,0.051529716945143814
0.7267872129396507,0.04649423971923399
0.6576333257038225,0.042465857938506144
0.5233539330128938,0.035751888303959714
0.27359426260776687,0.020645456626230255
0.024505989166094453,-0.010910200656137941
-0.17355611505302507,-0.052201113908598454
-0.2719157701991302,-0.0908064393072404
-0.35214770733196,-0.11699092088197145
-0.4206301976043335,-0.1270618753337911
-0.4961623559929808,-0.1284046692607004
-0.5596093690394446,-0.12588693064774548
-0.5455100328068971,-0.11799801632715344
-0.5092545967803463,-0.10524147402151522
-0.46225680933852137,-0.09567406729228656
-0.37933928435187303,-0.0955062180514229
-0.23532463569085216,-0.10087739375906005
0.029877164873731592,-0.10087739375906005
0.3293202105745021,-0.09433127336537728
0.5488670176241703,-0.0882887006942855
0.6858319981689174,-0.08476386663614863
0.7395437552452887,-0.08342107270923933
0.7261158159761959,-0.08342107270923933
0.6515907530327305,-0.08207827878233005
0.5139543755245288,-0.07838559548332952
0.27090867475394825,-0.06999313344014649
0.012756542305638208,-0.059250782024872196
-0.17758449683375294,-0.04917982757305257
-0.2950789654383154,-0.037094682230869
-0.34476234073395895,-0.022323949034866862
-0.42264438849469754,0.0011749446860456242
-0.5119401846341649,0.03659113450827802
-0.573708705271992,0.07553215838864728
-0.5696803234912642,0.10154879072251469
-0.5112687876707103,0.1079270618753338
-0.45420004577706563,0.10255588616769665
-0.37833218890669107,0.09181353475242236
-0.23532463569085216,0.07771419851987486
0.017120622568093383,0.06529335469596398
0.33536278324559393,0.05622949568932631
0.5602807660028991,0.050522621499961846
0.6764324406805524,0.04414435034714275
0.7194018463416494,0.03440909437705043
0.712687876707103,0.020645456626230255
0.6492408636606394,-0.0035248340581368735
0.5105973907072556,-0.03743038071259632
0.29440756847486077,-0.07351796749828336
0.033234149691004806,-0.10759136339360646
-0.1722133211261158,-0.13209735255970093
-0.2890363927672236,-0.14384679942015716
-0.3602044708934157,-0.14283970397497517
-0.41425192645151443,-0.12806897077897306
-0.5038834210727092,-0.11094834821087966
-0.564309147783627,-0.1002059967956054
-0.5656519417105363,-0.09483482108796826
-0.5300679026474403,-0.092484931715877
-0.4518501564049745,-0.09181353475242236
-0.3696040283817807,-0.0955062180514229
-0.24069581139848936,-0.09752040894178682
0.019806210421911954,-0.09047074082551307
0.32193484397650113,-0.08241397726405737
0.554909590295262,-0.08207827878233005
0.6858319981689174,-0.08677805752651253
0.7445792324711985,-0.08543526359960325
0.7247730220492866,-0.07536430914778362
0.6482337682154573,-0.061936369878690785
0.517311360341802,-0.05555809872587166
0.2843366140230411,-0.057236591134508276
0.049347676813916226,-0.05740444037537193
-0.1487144274052033,-0.04213015945677882
-0.26889448386358433,-0.008392462043183033
-0.34946211947814143,0.032730601968413826
-0.4280155642023346,0.06797894254978255
-0.5001907377737087,0.08375677119096665
-0.5686732280460822,0.08375677119096665
-0.5656519417105363,0.07704280155642022
-0.5293965056839857,0.06680399786373693
-0.45856412603952085,0.05555809872587166
-0.35751888303959717,0.04313725490196078
-0.20779736018921185,0.03256275272755016
0.049347676813916226,0.025345235370412753
0.3393911650263218,0.018631265735866327
0.5408102540627145,0.008392462043183033
0.6777752346074616,-0.009231708247501335
0.7415579461356527,-0.035416189822232394
0.7355153734645609,-0.07066453040360113
0.6536049439230944,-0.1096055542839704
0.5099259937438011,-0.14183260852979326
0.2715800717174029,-0.15996032654306858
0.010406652933546959,-0.16398870832379644
-0.16482795452811475,-0.1525749599450675
-0.29944304570077057,-0.1317616540779736
-0.39243152513923857,-0.11564812695506219
-0.46024261844815745,-0.10775921263447012
-0.528725108720531,-0.10457007705806058
-0.5716945143816281,-0.0988632028686961
-0.5727016098268101,-0.09315632867933166
-0.5307392996108949,-0.08879224841687647
-0.46494239719234,-0.08627450980392155
-0.38101777676050963,-0.0861066605630579
-0.24237430380712593,-0.08375677119096665
0.02719157701991302,-0.07536430914778362
0.3400625619897764,-0.06562905317769131
0.5515526054779888,-0.059250782024872196
0.6737468528267337,-0.05471885252155337
0.7335011825741969,-0.048508430609597926
0.7274586099031052,-0.04078736552986953
0.6710612649729152,-0.03373769741359579
0.5072404058899825,-0.023834592202639806
0.27090867475394825,-0.0015106431677729458
0.0157778286411841,0.036423285267414354
-0.16147096971084152,0.07905699244678416
-0.2574807354848554,0.10691996643015184
-0.3561760891126879,0.11329823758297093
-0.43540093080033565,0.10691996643015184
-0.517311360341802,0.09785610742351414
-0.5763942931258106,0.08644235904478523
-0.5763942931258106,0.07435721370260165
-0.5246967269398031,0.06277561608300908
-0.44412909132524603,0.0481727321278706
-0.37262531471732663,0.030716411078049892
-0.22659647516594186,0.019806210421911954
0.04129091325246051,0.018631265735866327
0.35147631036850535,0.007217517357137408
0.583108262760357,-0.02366674296177615
0.6871747920958267,-0.06327916380560006
0.7261158159761959,-0.09819180590524147
0.6992599374380102,-0.12370489051651787
0.6348058289463645,-0.1351186388952468
0.49314106965743487,-0.13310444800488286
0.2239108873121233,-0.12202639810788128
-0.011749446860456245,-0.10859845883878842
-0.1802700846875715,-0.09584191653315023
-0.29440756847486077,-0.09147783627069504
-0.3796749828336003,-0.0908064393072404
-0.46091401541161203,-0.09214923323414968
-0.5347676813916227,-0.09282063019760432
-0.6052643625543602,-0.09013504234378575
-0.5871366445410849,-0.08476386663614863
-0.5361104753185321,-0.08224612802319371
-0.46527809567406725,-0.08476386663614863
-0.3749752040894178,-0.08761730373083085
-0.2383459220263981,-0.08627450980392155
0.04061951628900587,-0.07435721370260165
0.34610513466086823,-0.05790798809796292
0.582101167315175,-0.048508430609597926
0.7234302281223773,-0.04666208896009766
0.7731136034180208,-0.04011596856641489
0.7811703669794765,-0.021652552071412222
0.7177233539330129,0.010574502174410621
0.566323338673991,0.051529716945143814
0.3226062409399557,0.0844281681544213
0.05035477225909819,0.1032272831311513
-0.13461509117265583,0.11262684061951626
-0.2608377203021286,0.11195544365606165
-0.34946211947814143,0.09987029831387809
-0.42465857938506135,0.08140688181887541
-0.49985503929198144,0.06428625925078202
-0.5743801022354467,0.049851224536507206
-0.6025787747005417,0.03743038071259632
-0.5555809872587167,0.028366521705958644
-0.48374151216906996,0.0213168535896849
-0.3830319676508736,0.009231708247501335
-0.24740978103303574,-0.01292439154650187
-0.0006713969634546426,-0.0481727321278706
0.3165636682688639,-0.08845654993514916
0.5428244449530785,-0.12169069962615398
0.6844892042420081,-0.14015411612115664
0.7476005188067445,-0.1468680857557031
0.7328297856107423,-0.1445181963836118
0.678110933089189,-0.1317616540779736
0.5233539330128938,-0.11749446860456245
0.2890363927672236,-0.11229114213778896
0.04800488288700694,-0.10926985580224306
-0.13461509117265583,-0.10373083085374227
-0.2541237506675822,-0.09819180590524147
-0.35953307392996103,-0.09819180590524147
-0.44748607614251923,-0.10154879072251469
-0.5216754406042572,-0.1002059967956054
-0.5770656900892653,-0.09382772564278628
-0.5918364232852674,-0.0861066605630579
-0.5619592584115358,-0.07956054016937514
-0.4944838635843442,-0.07737850003814756
-0.4072022583352407,-0.07637140459296558
-0.25311665522240023,-0.07066453040360113
0.01913481345845731,-0.06260776684214542
0.3340199893186847,-0.05589379720759898
0.5864652475776303,-0.043808651865415424
0.7056382085908293,-0.017959868772411687
0.7556572823682002,0.019974059662775615
0.7536430914778363,0.057572289616235596
0.6838178072785533,0.08073548485542076
0.5354390783550775,0.08744945448996719
0.2870222018768597,0.08644235904478523
0.03189135576409552,0.08308537422751203
-0.15274280918593117,0.07956054016937514
-0.26889448386358433,0.07133592736705577
-0.3628900587472343,0.058075837338826576
-0.4568856336308843,0.04145876249332417
-0.5179827573052568,0.024673838406958113
-0.5951934081025406,0.011917296101319903
-0.5958648050659953,0.004867627985046159
-0.5589379720759899,-0.004867627985046159
-0.49481956206607147,-0.033401998931868467
-0.39511711299305713,-0.07469291218432898
-0.24875257495994504,-0.10826276035706112
0.023163195239185166,-0.12773327229724574
0.33200579842832073,-0.13662928206301975
0.5596093690394446,-0.14250400549324788
0.6972457465476463,-0.14048981460288396
0.74692912184329,-0.12974746318760969
0.7482719157701991,-0.11564812695506219
0.6885175860227359,-0.10356298161287861
0.5394674601358053,-0.0988632028686961
0.29776455329213397,-0.09768825818265049
0.03256275272755016,-0.09315632867933166
-0.14804303044174866,-0.08627450980392155
-0.2635233081559472,-0.08241397726405737
-0.3555046921492332,-0.07872129396505684
-0.45554283970397497,-0.0750286106660563
-0.5535667963683528,-0.0703288319218738
-0.6106355382619973,-0.06596475165941862
-0.6086213473716334,-0.06462195773250935
-0.5535667963683528,-0.06462195773250935
-0.48374151216906996,-0.0639505607690547
-0.4031738765545128,-0.058915083543144876
-0.25345235370412755,-0.04313725490196078
0.003692683299000534,-0.017288471808957043
0.3246204318303197,0.01292439154650187
0.5609521629663539,0.04649423971923399
0.6972457465476463,0.07821774624246586
0.7543144884412909,0.09919890135042343
0.7288014038300145,0.10591287098496985
0.6710612649729152,0.09919890135042343
0.5367818722819867,0.08426031891355765
0.28970778973067823,0.06814679179064621
0.02719157701991302,0.056900892652780956
-0.16214236667429618,0.049515526054779886
-0.2635233081559472,0.041962310215915156
-0.3548332951857786,0.03440909437705043
-0.426337071793698,0.029205767910276948
-0.5112687876707103,0.01695277332722972
-0.5750514991989013,-0.005874723430228122
-0.5824368657969023,-0.037094682230869
-0.554909590295262,-0.07469291218432898
-0.47299916075379567,-0.11161974517433432
-0.38101777676050963,-0.13612573434042877
-0.23263904783703362,-0.14183260852979326
0.037262531471732654,-0.1364614328221561
0.33670557717250316,-0.1257190814068818
0.59150072480354,-0.11128404669260701
0.7341725795376516,-0.09819180590524147
0.780498970016022,-0.08946364538033112
0.7610284580758372,-0.08509956511787593
0.6891889829861906,-0.08577096208133059
0.5609521629663539,-0.08879224841687647
0.3179064621957733,-0.09214923323414968
0.056061646448462656,-0.08744945448996719
-0.14267185473411154,-0.0780498970016022
-0.2648661020828565,-0.07100022888532845
-0.34946211947814143,-0.06630045014114595
-0.43875791561760885,-0.061936369878690785
-0.5139543755245288,-0.059250782024872196
-0.5837796597238117,-0.055390249485008015
-0.5965362020294499,-0.04917982757305257
-0.5589379720759899,-0.04095521477073319
-0.4938124666208897,-0.028366521705958644
-0.3917601281757839,-0.0035248340581368735
-0.23599603265430688,0.03440909437705043
0.019806210421911954,0.0694895857175555
0.3313344014648661,0.09114213778896772
0.566323338673991,0.1032272831311513
0.7113450827801938,0.10725566491187914
0.7710994125276569,0.10054169527733271
0.7432364385442893,0.08845654993514916
0.6697184710460059,0.07771419851987486
0.5280537117570764,0.06462195773250935
0.2876935988403143,0.050186923018234526
0.02853437094682231,0.035919737544823374
-0.1550926985580224,0.022995345998321506
-0.2826581216144045,0.008896009765774012
-0.37094682230868997,-0.010574502174410621
-0.45151445792324707,-0.03810177767605096
-0.5455100328068971,-0.06764324406805522
-0.5784084840161745,-0.09517051956969558
-0.5911650263218127,-0.12336919203479056
-0.5696803234912642,-0.14468604562447548
-0.5032120241092546,-0.15492484931715875
-0.4112306401159686,-0.1512321660181582
-0.24942397192339977,-0.13461509117265583
0.02584878309300374,-0.12001220721751735
0.33670557717250316,-0.11514457923247119
0.5696803234912642,-0.11598382543678949
0.7053025101091019,-0.12101930266269931
0.7623712520027466,-0.1257190814068818
0.7445792324711985,-0.1270618753337911
0.6720683604180971,-0.12169069962615398
0.5132829785610742,-0.11296253910124363
0.269565880827039,-0.1057450217441062
0.011749446860456245,-0.09517051956969558
-0.18631265735866331,-0.08375677119096665
-0.2776226443884947,-0.07704280155642022
-0.3645685511558709,-0.07469291218432898
-0.45151445792324707,-0.07083237964446479
-0.5428244449530785,-0.06361486228732739
-0.6052643625543602,-0.05253681239032577
-0.5884794384679941,-0.033066300450141146
-0.554909590295262,0.0006713969634546426
-0.4897840848401617,0.044815747310597384
-0.4014953841458762,0.0844281681544213
-0.2588235294117647,0.1065842679484245
0.015106431677729458,0.10826276035706112
0.3179064621957733,0.0963454642557412
0.5606164644846265,0.08409246967269397
0.7019455252918287,0.07737850003814756
0.7549858854047455,0.07167162584878309
0.7489433127336537,0.06361486228732739
0.6831464103150988,0.0481727321278706
0.5414816510261692,0.027359426260776684
0.2840009155413138,0.01326009002822919
0.029205767910276948,0.007217517357137408
-0.16147096971084152,-0.008392462043183033
-0.2782940413519493,-0.041123064011596856
-0.34140535591668575,-0.08107118333714809
-0.4411078049897001,-0.11564812695506219
-0.5267109178301671,-0.1347829404135195
-0.5804226749065384,-0.14082551308461125
-0.5817654688334477,-0.14048981460288396
-0.5307392996108949,-0.13444724193179217
-0.4823987182421607,-0.12504768444342718
-0.3984740978103304,-0.11464103150988021
-0.24942397192339977,-0.10440222781719691
0.020477607385366595,-0.09684901197833219
0.3346913862821393,-0.09483482108796826
0.5703517204547187,-0.09684901197833219
0.7153734645609215,-0.09785610742351414
0.7650568398565653,-0.09752040894178682
0.7502861066605631,-0.09349202716105898
0.6818036163881894,-0.0861066605630579
0.5414816510261692,-0.07267872129396505
0.305149919890135,-0.05790798809796292
0.023834592202639806,-0.044815747310597384
-0.15744258793011368,-0.03944457160296025
-0.26654459449149304,-0.042801556420233464
-0.34979781795986875,-0.04515144579232471
-0.41458762493324175,-0.03743038071259632
-0.5213397421225299,-0.008560311284046692
-0.601907377737087,0.035248340581368734
-0.6126497291523614,0.07637140459296558
-0.5589379720759899,0.10054169527733271
-0.48105592431525135,0.10154879072251469
-0.39243152513923857,0.09449912260624094
-0.2306248569466697,0.08979934386205844
0.029877164873731592,0.0844281681544213
0.3323414969100481,0.0775463492790112
0.5582665751125353,0.06663614862287326
0.6985885404745555,0.051529716945143814
0.7610284580758372,0.035751888303959714
0.7335011825741969,0.019638361181048294
0.6730754558632792,0.007385366598001068
0.5213397421225299,-0.0055390249485008005
0.278965438315404,-0.027023727779049357
0.03256275272755016,-0.05622949568932631
-0.17489890897993438,-0.09013504234378575
-0.2816510261692225,-0.12034790569924468
-0.37195391775387193,-0.13612573434042877
-0.4481574731059739,-0.1381399252307927
-0.5213397421225299,-0.13243305104142825
-0.5931792172121766,-0.12135500114442664
-0.5898222323949035,-0.11229114213778896
-0.5468528267338063,-0.1062485694666972
-0.4991836423285267,-0.0988632028686961
-0.4004882887006942,-0.09013504234378575
-0.2366674296177615,-0.08476386663614863
0.049347676813916226,-0.08744945448996719
0.34308384832532235,-0.09365987640192262
0.5649805447470816,-0.0971847104600595
0.7096665903715572,-0.0955062180514229
0.7731136034180208,-0.08476386663614863
0.7590142671854733,-0.07066453040360113
0.6757610437170978,-0.05992217898832684
0.5364461738002594,-0.06109712367437248
0.2903791866941329,-0.06529335469596398
0.03054856183718624,-0.06126497291523613
-0.14468604562447548,-0.050186923018234526
-0.2702372777904936,-0.028366521705958644
-0.35281910429541463,0.0052033264667734795
-0.45151445792324707,0.044480048828870064
-0.5347676813916227,0.07771419851987486
-0.5784084840161745,0.09483482108796826
-0.5951934081025406,0.09819180590524147
-0.5495384145876249,0.08979934386205844
-0.4944838635843442,0.08039978637369342
-0.398138399328603,0.07402151522087433
-0.24203860532539861,0.06630045014114595
0.04129091325246051,0.05421530479896238
0.35416189822232397,0.03776607919432364
0.5602807660028991,0.02652018005645838
0.6905317769130999,0.021149004348821242
0.740886549172198,0.014267185473411156
0.7382009613183794,-0.009567406729228655
0.6804608224612801,-0.051865415426871134
0.5199969481956207,-0.09449912260624094
0.28030823224231327,-0.12236209658960862
0.01846341649500267,-0.13444724193179217
-0.16348516060120546,-0.13579003585870145
-0.2581521324483101,-0.1317616540779736
-0.3548332951857786,-0.12169069962615398
-0.43405813687342637,-0.11061264972915236
-0.5401388570992599,-0.10154879072251469
-0.603921568627451,-0.09584191653315023
-0.5965362020294499,-0.0955062180514229
-0.5468528267338063,-0.09785610742351414
-0.4756847486076141,-0.09953459983215075
-0.3964599069199664,-0.09752040894178682
-0.23968871595330735,-0.09416342412451362
0.035248340581368734,-0.08979934386205844
0.36691844052796213,-0.08123903257801174
0.5978789959563592,-0.07267872129396505
0.7180590524147402,-0.06797894254978255
0.7838559548332952,-0.06529335469596398
0.7663996337834744,-0.06327916380560006
0.6972457465476463,-0.062272068360418105
0.5502098115510795,-0.05992217898832684
0.3031357289997711,-0.044815747310597384
0.061432822156099784,-0.01359578850995651
-0.1292439154650187,0.028702220187685965
-0.2541237506675822,0.06881818875410085
-0.3551689936675059,0.09282063019760432
-0.45151445792324707,0.09919890135042343
-0.5307392996108949,0.0971847104600595
-0.620706492713817,0.09449912260624094
-0.6294346532387274,0.0891279468986038
-0.5844510566872663,0.07200732433051041
-0.5058976119630731,0.057572289616235596
-0.42264438849469754,0.05589379720759898
-0.28567940794995034,0.05354390783550774
0.011413748378728923,0.04145876249332417
0.31589227130540926,0.02265964751659419
0.5495384145876249,0.0011749446860456242
0.6925459678034637,-0.027359426260776684
0.7489433127336537,-0.061936369878690785
0.7502861066605631,-0.09449912260624094
0.675089646753643,-0.12101930266269931
0.5367818722819867,-0.13914702067597465
0.3017929350728618,-0.14384679942015716
0.03121995880064088,-0.13713282978561073
-0.1487144274052033,-0.12504768444342718
-0.2762798504615854,-0.11497672999160755
-0.3618829633020523,-0.1062485694666972
-0.4394293125810635,-0.10087739375906005
-0.5273823147936216,-0.09701686121919585
-0.6009002822919051,-0.09752040894178682
-0.6166781109330892,-0.10121309224078735
-0.5636377508201724,-0.10255588616769665
-0.4951552605477989,-0.09684901197833219
-0.40451667048142215,-0.08140688181887541
-0.2554665445944915,-0.06764324406805522
0.009063859006637675,-0.06092927443350881
0.32864881361104753,-0.05857938506141757
0.5495384145876249,-0.06025787747005417
0.7056382085908293,-0.06210421911955444
0.7590142671854733,-0.056900892652780956
0.7355153734645609,-0.044815747310597384
0.6858319981689174,-0.029709315632867935
0.5186541542687114,-0.004196231021591517
0.27359426260776687,0.03675898374914168
0.03692683299000534,0.08073548485542076
-0.1359578850995651,0.10926985580224306
-0.2554665445944915,0.11699092088197145
-0.3632257572289616,0.11010910200656136
-0.44144350347142747,0.09483482108796826
-0.5092545967803463,0.07838559548332952
-0.5763942931258106,0.0639505607690547
-0.5965362020294499,0.048844129091325246
-0.5616235599298084,0.03407339589532311
-0.49582665751125343,0.0260166323338674
-0.40854505226215004,0.020645456626230255
-0.23532463569085216,0.0052033264667734795
0.03189135576409552,-0.019302662699320974
0.32999160753795675,-0.049851224536507206
0.5784084840161745,-0.08073548485542076
0.6985885404745555,-0.11262684061951626
0.7663996337834744,-0.13579003585870145
0.7553215838864729,-0.14653238727397572
0.6797894254978255,-0.14988937209124895
0.5481956206607157,-0.1445181963836118
0.29776455329213397,-0.13075455863279162
0.049011978332188906,-0.11514457923247119
-0.1359578850995651,-0.1032272831311513
-0.24472419317921723,-0.09684901197833219
-0.34274814984359503,-0.0955062180514229
-0.44278629739833675,-0.09500267032883192
-0.5310749980926222,-0.09214923323414968
-0.5982146944380865,-0.0908064393072404
-0.5911650263218127,-0.09114213778896772
-0.5545738918135347,-0.09315632867933166
-0.48374151216906996,-0.09047074082551307
-0.3857175555046921,-0.08073548485542076
-0.24740978103303574,-0.06663614862287326
0.027862973983367664,-0.05740444037537193
0.3548332951857786,-0.0528725108720531
0.590493629358358,-0.04750133516441596
0.7200732433051041,-0.03743038071259632
0.7556572823682002,-0.01896696421759365
0.7583428702220187,0.011245899137865261
0.6975814450293737,0.048844129091325246
0.528725108720531,0.08107118333714809
0.26755168993667505,0.09987029831387809
0.01846341649500267,0.09919890135042343
-0.15542839703974973,0.08543526359960325
-0.27493705653467615,0.07217517357137408
-0.36490424963759815,0.06428625925078202
-0.45218585488670177,0.05790798809796292
-0.539131761654078,0.05085831998168917
-0.5995574883649958,0.04145876249332417
-0.6119783321889066,0.027862973983367664
-0.5596093690394446,0.014602883955138474
-0.4944838635843442,0.004867627985046159
-0.4004882887006942,-0.017120622568093383
-0.24673838406958112,-0.05471885252155337
0.03121995880064088,-0.0955062180514229
0.3555046921492332,-0.12269779507133592
0.5837796597238117,-0.1326009002822919
0.7073167009994659,-0.13327229724574652
0.7583428702220187,-0.12907606622415504
0.7382009613183794,-0.12236209658960862
0.6898603799496451,-0.11531242847333485
0.5367818722819867,-0.10691996643015184
0.278965438315404,-0.0988632028686961
0.024505989166094453,-0.0963454642557412
-0.1453574425879301,-0.0988632028686961
-0.2581521324483101,-0.1002059967956054
-0.3602044708934157,-0.09517051956969558
-0.42868696116578925,-0.08845654993514916
-0.5105973907072556,-0.08375677119096665
-0.5723659113450827,-0.0788891432059205
-0.5676661326009002,-0.07570000762951096
-0.5324177920195314,-0.07200732433051041
-0.4424505989166094,-0.061936369878690785
-0.36725413900968945,-0.049851224536507206
-0.22323949034866863,-0.04011596856641489
0.043640802624551764,-0.036423285267414354
0.34476234073395895,-0.027695124742504008
0.5864652475776303,-0.0015106431677729458
0.7086594949263753,0.04213015945677882
0.7543144884412909,0.08375677119096665
0.7348439765011063,0.10389868009460593
0.6670328831921873,0.10457007705806058
0.5199969481956207,0.09835965514610515
0.2574807354848554,0.09013504234378575
0.012420843823910887,0.07939269092851148
-0.1708705271992065,0.06814679179064621
-0.2876935988403143,0.05857938506141757
-0.380346379797055,0.05085831998168917
-0.47098496986343175,0.04129091325246051
-0.5401388570992599,0.029037918669413288
-0.6099641412985427,0.014602883955138474
-0.6180209048599984,-0.011749446860456245
-0.5740444037537193,-0.04917982757305257
-0.5025406271457998,-0.08677805752651253
-0.39914549477378497,-0.12101930266269931
-0.25177386129549095,-0.14518959334706644
0.025177386129549097,-0.1525749599450675
0.3323414969100481,-0.14988937209124895
0.5562523842221714,-0.13847562371252
0.710673685816739,-0.12336919203479056
0.7516289005874722,-0.10893415732051576
0.7234302281223773,-0.09987029831387809
0.6586404211490042,-0.0988632028686961
0.5112687876707103,-0.0971847104600595
0.26150911726558324,-0.09349202716105898
0.0050354772259098195,-0.09214923323414968
-0.15542839703974973,-0.09416342412451362
-0.2729228656443122,-0.0971847104600595
-0.36356145571068893,-0.09785610742351414
-0.45420004577706563,-0.09483482108796826
-0.5461814297703517,-0.08812085145342184
-0.5874723430228124,-0.07838559548332952
-0.6009002822919051,-0.07133592736705577
-0.5535667963683528,-0.06361486228732739
-0.4706492713817043,-0.05270466163118945
-0.3944457160296025,-0.03910887312123293
-0.23465323872739755,-0.018631265735866327
0.033234149691004806,0.018631265735866327
0.33267719539177537,0.06495765621423667
0.566323338673991,0.09970244907301441
0.7093308918898298,0.11262684061951626
0.7677424277103838,0.1065842679484245
0.7516289005874722,0.09114213778896772
0.6824750133516441,0.0750286106660563
0.5267109178301671,0.06495765621423667
0.2719157701991302,0.06025787747005417
0.010406652933546959,0.050522621499961846
-0.15744258793011368,0.035751888303959714
-0.2383459220263981,0.028030823224231328
-0.3548332951857786,0.0260166323338674
-0.4568856336308843,0.017624170290684367
-0.5354390783550775,-0.007721065079728388
-0.5898222323949035,-0.04783703364614328
-0.5790798809796293,-0.09214923323414968
-0.5525597009231707,-0.12437628747997252
-0.4864271000228885,-0.13411154345006485
-0.38974593728541995,-0.13075455863279162
-0.2272678721293965,-0.12437628747997252
0.04632639047837033,-0.11699092088197145
0.34811932555123215,-0.10926985580224306
0.5878080415045395,-0.10289158464942397
0.722087434195468,-0.09819180590524147
0.7717708094911115,-0.09349202716105898
0.7449149309529259,-0.09214923323414968
0.6925459678034637,-0.09315632867933166
0.5448386358434424,-0.09147783627069504
0.2762798504615854,-0.08812085145342184
0.029877164873731592,-0.08274967574578469
-0.14602883955138474,-0.07872129396505684
-0.2588235294117647,-0.0750286106660563
-0.3440909437705043,-0.07335011825741969
-0.45151445792324707,-0.07066453040360113
-0.534096284428168,-0.062272068360418105
-0.6062714579995422,-0.05522240024414436
-0.6005645838101776,-0.05119401846341649
-0.5455100328068971,-0.03776607919432364
-0.48105592431525135,-0.006210421911955443
-0.3857175555046921,0.035416189822232394
-0.22458228427557791,0.07234302281223774
0.056061646448462656,0.09449912260624094
0.361547264820325,0.10255588616769665
0.5985503929198138,0.0988632028686961
0.7301441977569237,0.09047074082551307
0.7623712520027466,0.07771419851987486
0.7449149309529259,0.06092927443350881
0.6737468528267337,0.04213015945677882
0.5304036011291676,0.03407339589532311
0.29642175936522464,0.03172350652323186
0.012420843823910887,0.02668802929732204
-0.16952773327229725,0.01829556725413901
-0.2816510261692225,-0.0021820401312275884
-0.3628900587472343,-0.03944457160296025
-0.43976501106279087,-0.08241397726405737
-0.5515526054779888,-0.11866941329060808
-0.6086213473716334,-0.1398184176394293
-0.6099641412985427,-0.14552529182879376
-0.5649805447470816,-0.13780422674906534
-0.49179827573052565,-0.12437628747997252
-0.38974593728541995,-0.11396963454642556
-0.23129625391012437,-0.1062485694666972
0.03054856183718624,-0.1002059967956054
0.34879072251468685,-0.09684901197833219
0.5898222323949035,-0.09282063019760432
0.7341725795376516,-0.09164568551155872
0.7825131609063859,-0.09365987640192262
0.7402151522087433,-0.10104524299992369
0.6677042801556421,-0.1032272831311513
0.5126115815976195,-0.09416342412451362
0.2729228656443122,-0.08375677119096665
0.025177386129549097,-0.08023193713282978
-0.17422751201647974,-0.07704280155642022
-0.28500801098649575,-0.06663614862287326
-0.37094682230868997,-0.05555809872587166
-0.45856412603952085,-0.04800488288700694
-0.5310749980926222,-0.03910887312123293
-0.5925078202487221,-0.01829556725413901
-0.5911650263218127,0.0157778286411841
-0.5562523842221714,0.061936369878690785
-0.4864271000228885,0.09852750438696878
-0.38974593728541995,0.11531242847333485
-0.23129625391012437,0.11598382543678949
0.0473334859235523,0.1065842679484245
0.34274814984359503,0.08979934386205844
0.5690089265278097,0.06965743495841917
0.6965743495841917,0.0528725108720531
0.7536430914778363,0.04145876249332417
0.7375295643549249,0.030380712596322572
0.6522621499961851,0.022323949034866862
0.519325551232166,0.018631265735866327
0.27090867475394825,0.009567406729228655
0.024841687647821773,-0.01695277332722972
-0.15140001525902191,-0.057572289616235596
-0.278965438315404,-0.0955062180514229
-0.3581902800030518,-0.11850156404974439
-0.4615854123750668,-0.12655832761120012
-0.5468528267338063,-0.12907606622415504
-0.590493629358358,-0.12941176470588234
-0.5911650263218127,-0.12907606622415504
-0.5596093690394446,-0.12118715190356297
-0.5042191195544365,-0.1096055542839704
-0.4031738765545128,-0.09852750438696878
-0.2349889372091249,-0.09315632867933166
0.060090028229190504,-0.09500267032883192
0.36221866178377965,-0.09584191653315023
0.5807583733882657,-0.09298847943846798
0.7247730220492866,-0.0908064393072404
0.7751277943083849,-0.08879224841687647
0.7647211413748378,-0.08812085145342184
0.6791180285343709,-0.08493171587701229
0.5055619134813458,-0.0767071030746929
0.2729228656443122,-0.06764324406805522
0.012420843823910887,-0.061936369878690785
-0.16684214541847867,-0.059250782024872196
-0.26721599145494773,-0.05387960631723506
-0.36624704356450744,-0.03843747615777828
-0.45352864881361105,-0.00788891432059205
-0.5528953994048981,0.032730601968413826
-0.6032501716639962,0.06663614862287326
-0.5911650263218127,0.08644235904478523
-0.5374532692454412,0.0971847104600595
-0.47299916075379567,0.09752040894178682
-0.39511711299305713,0.08812085145342184
-0.22592507820248725,0.0750286106660563
0.06243991760128176,0.06210421911955444
0.37833218890669107,0.049347676813916226
0.590493629358358,0.03743038071259632
0.7153734645609215,0.03172350652323186
0.7811703669794765,0.02668802929732204
0.7486076142519265,0.01326009002822919
0.6677042801556421,-0.008560311284046692
0.5152971694514382,-0.03776607919432364
0.2648661020828565,-0.07183947508964675
0.013092240787365528,-0.10289158464942397
-0.17758449683375294,-0.12639047837033646
-0.2782940413519493,-0.14015411612115664
-0.3581902800030518,-0.14250400549324788
-0.4568856336308843,-0.13109025711451894
-0.5528953994048981,-0.11564812695506219
-0.6139925230792705,-0.10859845883878842
-0.603921568627451,-0.10826276035706112
-0.5582665751125353,-0.10356298161287861
-0.4850843060959793,-0.09483482108796826
-0.39377431906614785,-0.09147783627069504
-0.23532463569085216,-0.09349202716105898
0.05740444037537193,-0.09483482108796826
0.36087586785687037,-0.08946364538033112
0.5925078202487221,-0.0800640878919661
0.7301441977569237,-0.07603570611123828
0.7825131609063859,-0.0767071030746929
0.7610284580758372,-0.07620355535210192
0.6643472953383688,-0.06596475165941862
0.5065690089265278,-0.049851224536507206
0.26150911726558324,-0.03910887312123293
0.013092240787365528,-0.0323949034866865
-0.16684214541847867,-0.01628137636377508
-0.2876935988403143,0.01527428091859312
-0.3689326314183261,0.05555809872587166
-0.4468146791790647,0.08845654993514916
-0.5347676813916227,0.10457007705806058
-0.5965362020294499,0.10591287098496985
-0.5998931868467231,0.09970244907301441
-0.5535667963683528,0.09114213778896772
-0.4864271000228885,0.08375677119096665
-0.3763179980163271,0.07570000762951096
-0.2272678721293965,0.06613260090028229
0.05471885252155337,0.051865415426871134
0.3675898374914168,0.03407339589532311
0.567330434119173,0.017288471808957043
0.7153734645609215,0.0011749446860456242
0.7620355535210193,-0.02400244144350347
0.7422293430991073,-0.059250782024872196
0.6777752346074616,-0.092484931715877
0.5011978332188906,-0.11833371480888075
0.2628519111924925,-0.13209735255970093
0.021820401312275882,-0.1381399252307927
-0.16482795452811475,-0.13579003585870145
-0.2836652170595865,-0.12471198596169988
-0.36557564660105285,-0.11430533302815289
-0.43540093080033565,-0.11094834821087966
-0.5267109178301671,-0.11128404669260701
-0.5982146944380865,-0.11229114213778896
-0.601907377737087,-0.10893415732051576
-0.5616235599298084,-0.10087739375906005
-0.4823987182421607,-0.09349202716105898
-0.39713130388342105,-0.09181353475242236
-0.2299534599832151,-0.09047074082551307
0.04800488288700694,-0.08744945448996719
0.35886167696650645,-0.08342107270923933
0.5918364232852674,-0.08207827878233005
0.7173876554512856,-0.0800640878919661
0.7764705882352941,-0.07435721370260165
0.7556572823682002,-0.0639505607690547
0.6757610437170978,-0.04582284275577936
0.5082475013351644,-0.024338139925230793
0.25345235370412755,-0.0028534370946822307
0.011749446860456245,0.027695124742504008
-0.16147096971084152,0.062272068360418105
-0.27090867475394825,0.08778515297169451
-0.36423285267414357,0.09584191653315023
-0.4615854123750668,0.09298847943846798
-0.5434958419165331,0.08744945448996719
-0.6126497291523614,0.0750286106660563
-0.6025787747005417,0.06294346532387274
-0.5555809872587167,0.05622949568932631
-0.49649805447470813,0.04515144579232471
-0.40216678110933085,0.033401998931868467
-0.25009536888685435,0.025345235370412753
0.06747539482719157,0.015106431677729458
0.37296101319905395,-0.007217517357137408
0.5874723430228124,-0.03994811932555123
0.7093308918898298,-0.07905699244678416
0.7647211413748378,-0.11699092088197145
0.7583428702220187,-0.139482719157702
0.6844892042420081,-0.1398184176394293
0.5126115815976195,-0.13142595559624626
0.2628519111924925,-0.12135500114442664
0.004364080262455177,-0.11027695124742502
-0.16549935149156939,-0.10087739375906005
-0.2796368352788586,-0.09819180590524147
-0.37027542534523533,-0.10037384603646905
-0.46393530174715797,-0.10356298161287861
-0.5448386358434424,-0.10289158464942397
-0.5938506141756313,-0.10087739375906005
-0.5938506141756313,-0.09517051956969558
-0.5327534905012589,-0.08560311284046693
-0.46024261844815745,-0.08291752498664834
-0.37363241016250853,-0.08409246967269397
-0.21652552071412223,-0.08207827878233005
0.05874723430228122,-0.07855344472419318
0.38638895246814675,-0.07301441977569237
0.5972075989929045,-0.06445410849164566
0.7214160372320134,-0.05589379720759898
0.7757991912718394,-0.043808651865415424
0.7496147096971084,-0.019638361181048294
0.6777752346074616,0.020309758144502935
0.5226825360494392,0.06428625925078202
0.26016632333867395,0.09567406729228656
0.006042572671091783,0.10708781567101548
-0.17389181353475242,0.1065842679484245
-0.2890363927672236,0.10289158464942397
-0.3756466010528725,0.09517051956969558
-0.4407721065079728,0.08207827878233005
-0.5280537117570764,0.06529335469596398
-0.5837796597238117,0.048844129091325246
-0.5834439612420843,0.04078736552986953
-0.5280537117570764,0.03608758678568704
-0.43271534294651715,0.033401998931868467
-0.35751888303959717,0.021988250553139542
-0.2124971389333944,-0.0055390249485008005
0.07284657053482871,-0.04313725490196078
0.37430380712596323,-0.0844281681544213
0.5931792172121766,-0.11699092088197145
0.7019455252918287,-0.13344014648661018
0.7462577248798351,-0.1398184176394293
0.7194018463416494,-0.13444724193179217
0.6361486228732738,-0.11967650873579004
0.4743419546807049,-0.10557717250324253
0.23196765087357898,-0.09852750438696878
-0.012420843823910887,-0.09282063019760432
-0.18866254673075455,-0.09013504234378575
-0.29575036240177,-0.09282063019760432
-0.388738841840238,-0.09785610742351414
-0.4595712214847028,-0.1032272831311513
-0.5189898527504387,-0.10305943389028763
-0.5804226749065384,-0.09483482108796826
-0.5763942931258106,-0.08073548485542076
-0.5246967269398031,-0.06932173647669183
-0.4568856336308843,-0.06663614862287326
-0.34946211947814143,-0.06814679179064621
-0.21115434500648506,-0.0639505607690547
0.060090028229190504,-0.05488670176241703
0.36624704356450744,-0.04515144579232471
0.575722896162356,-0.03172350652323186
0.7029526207370107,-0.008224612802319372
0.7281300068665598,0.02400244144350347
0.7012741283283741,0.06126497291523613
0.6254062714579995,0.08979934386205844
0.47367055771725036,0.10255588616769665
0.22458228427557791,0.10389868009460593
-0.008392462043183033,0.09852750438696878
-0.17489890897993438,0.08778515297169451
-0.2997787441824979,0.07687495231555656
-0.3790035858701457,0.06092927443350881
-0.4568856336308843,0.04414435034714275
-0.5146257724879835,0.032730601968413826
-0.5508812085145341,0.02668802929732204
-0.5690089265278097,0.01846341649500267
-0.5136186770428016,-0.0011749446860456242
-0.43204394598306245,-0.03105210955977722
-0.34711223010605013,-0.06881818875410085
-0.19134813458457312,-0.1065842679484245
0.0772106507972839,-0.13192950331883724
0.3823605706874189,-0.14082551308461125
0.5824368657969023,-0.14015411612115664
0.6925459678034637,-0.13579003585870145
0.7375295643549249,-0.1270618753337911
0.7281300068665598,-0.11245899137865262
0.6703898680094605,-0.09752040894178682
0.4951552605477989,-0.08845654993514916
0.23733882658121616,-0.0861066605630579
-0.008392462043183033,-0.0908064393072404
-0.17892729076066224,-0.09483482108796826
-0.26755168993667505,-0.09315632867933166
-0.36356145571068893,-0.08627450980392155
-0.43976501106279087,-0.07838559548332952
-0.5146257724879835,-0.0703288319218738
-0.554909590295262,-0.06797894254978255
-0.5428244449530785,-0.07335011825741969
-0.5226825360494392,-0.0750286106660563
-0.44345769436179144,-0.06562905317769131
-0.3568474860761425,-0.05119401846341649
-0.20444037537193865,-0.03407339589532311
0.07150377660791943,-0.010238803692683297
0.35751888303959717,0.020645456626230255
0.566323338673991,0.05656519417105363
0.6643472953383688,0.08778515297169451
0.6972457465476463,0.10457007705806058
0.6992599374380102,0.10725566491187914
0.6334630350194552,0.09819180590524147
0.4696421759365224,0.08627450980392155
0.21383993286030367,0.07570000762951096
-0.03256275272755016,0.06630045014114595
-0.19235523002975508,0.05555809872587166
-0.27997253376058595,0.04213015945677882
-0.3602044708934157,0.025345235370412753
-0.44345769436179144,0.008896009765774012
-0.5233539330128938,-0.007553215838864729
-0.5837796597238117,-0.025680933852140077
-0.5817654688334477,-0.05387960631723506
-0.5387960631723507,-0.09365987640192262
-0.47702754253452356,-0.12773327229724574
-0.3857175555046921,-0.14250400549324788
-0.22861066605630578,-0.14283970397497517
0.056061646448462656,-0.1351186388952468
0.36624704356450744,-0.12185854886701762
0.5878080415045395,-0.10759136339360646
0.6959029526207371,-0.10037384603646905
0.7180590524147402,-0.09785610742351414
0.7093308918898298,-0.09919890135042343
0.6408484016174563,-0.1065842679484245
0.4938124666208897,-0.11161974517433432
0.24673838406958112,-0.11027695124742502
-0.012420843823910887,-0.1065842679484245
-0.17288471808957045,-0.10222018768596933
-0.2782940413519493,-0.09819180590524147
-0.35886167696650645,-0.09214923323414968
-0.43271534294651715,-0.08476386663614863
-0.5267109178301671,-0.07956054016937514
-0.5723659113450827,-0.07570000762951096
-0.5777370870527199,-0.06965743495841917
-0.5300679026474403,-0.057236591134508276
-0.45420004577706563,-0.030716411078049892
-0.36591134508278017,0.006546120393682764
-0.20444037537193865,0.04548714427405204
0.05941863126573587,0.0780498970016022
0.3602044708934157,0.10054169527733271
0.5824368657969023,0.11128404669260701
0.722087434195468,0.11128404669260701
0.7650568398565653,0.1002059967956054
0.7294728007934691,0.08543526359960325
0.6596475165941862,0.07234302281223774
0.49649805447470813,0.0639505607690547
0.2568093385214008,0.05622949568932631
0.019806210421911954,0.042465857938506144
-0.1560997940032044,0.022323949034866862
-0.24606698710612646,0.003860532539864194
-0.34341954680704967,-0.01695277332722972
-0.4192874036774243,-0.044647898069733724
-0.4971694514381629,-0.07737850003814756
-0.5723659113450827,-0.11027695124742502
-0.5844510566872663,-0.13679713130388343
-0.5542381933318073,-0.147875181200885
-0.47904173342488743,-0.14518959334706644
-0.3830319676508736,-0.1351186388952468
-0.2124971389333944,-0.12101930266269931
0.058075837338826576,-0.10893415732051576
0.35147631036850535,-0.1032272831311513
0.5810940718699931,-0.10356298161287861
0.7019455252918287,-0.10759136339360646
0.759685664148928,-0.10893415732051576
0.731486991683833,-0.10775921263447012
0.6556191348134585,-0.10289158464942397
0.5042191195544365,-0.092484931715877
0.2299534599832151,-0.08039978637369342
-0.0003356984817273213,-0.07301441977569237
-0.15274280918593117,-0.07402151522087433
-0.2702372777904936,-0.07872129396505684
-0.3561760891126879,-0.07570000762951096
-0.44412909132524603,-0.0639505607690547
-0.5307392996108949,-0.05253681239032577
-0.5817654688334477,-0.041123064011596856
-0.5700160219729915,-0.020309758144502935
-0.5320820935378041,0.016617074845502403
-0.4944838635843442,0.06160067139696345
-0.3927672236209659,0.09651331349660487
-0.21383993286030367,0.11195544365606165
0.0852674143587396,0.10893415732051576
0.38101777676050963,0.09382772564278628
0.5898222323949035,0.08140688181887541
0.7086594949263753,0.07368581673914701
0.7489433127336537,0.06697184710460058
0.7355153734645609,0.058915083543144876
0.6683756771190966,0.04615854123750667
0.49985503929198144,0.030380712596322572
0.24875257495994504,0.01527428091859312
-0.011078049897001601,0.0005035477225909818
-0.17959868772411688,-0.020981155107957578
-0.2776226443884947,-0.057236591134508276
-0.36826123445487147,-0.09684901197833219
-0.44614328221561,-0.12857251850156404
-0.5408102540627145,-0.14653238727397572
-0.5780727855344472,-0.14821087968261232
-0.5710231174181735,-0.1351186388952468
-0.5374532692454412,-0.11833371480888075
-0.47602044708934155,-0.1065842679484245
-0.3890745403219653,-0.10188448920424201
-0.2178683146410315,-0.09953459983215075
0.058075837338826576,-0.09684901197833219
0.3632257572289616,-0.0955062180514229
0.5582665751125353,-0.09517051956969558
0.675089646753643,-0.09584191653315023
0.7281300068665598,-0.09416342412451362
0.6858319981689174,-0.08879224841687647
0.6260776684214542,-0.0800640878919661
0.4830701152056153,-0.06814679179064621
0.22928206301976042,-0.059250782024872196
-0.02584878309300374,-0.056061646448462656
-0.1990691996643015,-0.05656519417105363
-0.27426565957122145,-0.05387960631723506
-0.3346913862821393,-0.04716563668268864
-0.42264438849469754,-0.03474479285877775
-0.5085831998168918,-0.010238803692683297
-0.5696803234912642,0.030045014114595252
-0.5508812085145341,0.07200732433051041
-0.49985503929198144,0.09517051956969558
-0.436743724727245,0.09651331349660487
-0.34946211947814143,0.09013504234378575
-0.19302662699320974,0.08409246967269397
0.0882887006942855,0.07838559548332952
0.3696040283817807,0.06764324406805522
0.5810940718699931,0.05354390783550774
0.6885175860227359,0.03743038071259632
0.7301441977569237,0.024673838406958113
0.7093308918898298,0.018631265735866327
0.6267490653849087,0.01326009002822919
0.49112687876707095,-0.0028534370946822307
0.2541237506675822,-0.03172350652323186
0.011749446860456245,-0.06462195773250935
-0.16818493934538795,-0.09416342412451362
-0.2756084534981307,-0.11699092088197145
-0.34073395895323105,-0.1284046692607004
-0.4072022583352407,-0.1326009002822919
-0.4844129091325245,-0.1284046692607004
-0.5525597009231707,-0.11833371480888075
-0.5535667963683528,-0.1062485694666972
-0.49314106965743487,-0.0971847104600595
-0.4374151216906996,-0.09282063019760432
-0.3508049134050507,-0.09164568551155872
-0.20444037537193865,-0.09114213778896772
0.06344701304646372,-0.09298847943846798
0.350133516441596,-0.09617761501487754
0.5408102540627145,-0.09852750438696878
0.677103837644007,-0.09919890135042343
0.7093308918898298,-0.09349202716105898
0.6818036163881894,-0.08342107270923933
0.6133211261158159,-0.07469291218432898
0.4682993820096132,-0.06764324406805522
0.24472419317921723,-0.05790798809796292
0.0023498893720912484,-0.04800488288700694
-0.1641565575646601,-0.03810177767605096
-0.2541237506675822,-0.01846341649500267
-0.3380483710994125,0.013931486991683832
-0.4112306401159686,0.05471885252155337
-0.4800488288700694,0.0908064393072404
-0.5293965056839857,0.10759136339360646
-0.5361104753185321,0.10759136339360646
-0.4985122453650721,0.0971847104600595
-0.44211490043488205,0.08409246967269397
-0.36490424963759815,0.07234302281223774
-0.1990691996643015,0.06294346532387274
0.07351796749828336,0.05354390783550774
0.3551689936675059,0.04213015945677882
0.5542381933318073,0.028030823224231328
0.6576333257038225,0.013931486991683832
0.703288319218738,0.0035248340581368735
0.6710612649729152,-0.014267185473411156
0.6022430762188143,-0.04649423971923399
0.45084306095979243,-0.0861066605630579
0.21451132982375828,-0.12051575494010834
-0.021820401312275882,-0.14250400549324788
-0.19369802395666438,-0.15190356298161287
-0.2920576791027695,-0.15056076905470359
-0.36691844052796213,-0.13545433737697413
-0.43808651865415427,-0.11766231784542608
-0.49649805447470813,-0.10557717250324253
-0.5387960631723507,-0.0988632028686961
-0.5293965056839857,-0.09282063019760432
-0.5011978332188906,-0.09013504234378575
-0.44144350347142747,-0.09231708247501334
-0.35953307392996103,-0.09852750438696878
-0.1990691996643015,-0.10373083085374227
0.08963149462119477,-0.10356298161287861
0.3561760891126879,-0.09567406729228656
0.5448386358434424,-0.08644235904478523
0.6549477378500038,-0.08174258030060273
0.6945601586938277,-0.07637140459296558
0.6844892042420081,-0.06797894254978255
0.6012359807736323,-0.05824368657969024
0.43875791561760885,-0.048508430609597926
0.19369802395666438,-0.033066300450141146
-0.03189135576409552,-0.004531929503318838
-0.18698405432211795,0.035751888303959714
-0.28500801098649575,0.07704280155642022
-0.34274814984359503,0.10356298161287861
-0.4192874036774243,0.10926985580224306
-0.49314106965743487,0.10389868009460593
-0.5347676813916227,0.10222018768596933
-0.5226825360494392,0.10054169527733271
-0.46897077897306777,0.08879224841687647
-0.43036545357442585,0.07083237964446479
-0.35886167696650645,0.05622949568932631
-0.20444037537193865,0.04750133516441596
0.08694590676737621,0.03810177767605096
0.3756466010528725,0.02400244144350347
0.5488670176241703,0.0011749446860456242
0.6462195773250935,-0.028030823224231328
0.6831464103150988,-0.05958648050659952
0.6670328831921873,-0.09147783627069504
0.6092927443350882,-0.12034790569924468
0.4481574731059739,-0.13746852826733807
0.20578316929884793,-0.1420004577706569
-0.021149004348821242,-0.13914702067597465
-0.17624170290684368,-0.1317616540779736
-0.27426565957122145,-0.12034790569924468
-0.34308384832532235,-0.1079270618753338
-0.40115968566414895,-0.1002059967956054
-0.5105973907072556,-0.09483482108796826
-0.5488670176241703,-0.0908064393072404
-0.5334248874647135,-0.092484931715877
-0.4884412909132525,-0.0955062180514229
-0.40753795681696803,-0.09584191653315023
-0.35214770733196,-0.0891279468986038
-0.18966964217593651,-0.07603570611123828
0.0882887006942855,-0.06462195773250935
0.37430380712596323,-0.06092927443350881
0.5703517204547187,-0.06697184710460058
0.6613260090028229,-0.07133592736705577
0.6979171435111009,-0.062272068360418105
0.6677042801556421,-0.04515144579232471
0.5931792172121766,-0.02400244144350347
0.4481574731059739,0.003860532539864194
0.21853971160448613,0.04145876249332417
-0.01913481345845731,0.08174258030060273
-0.2004119935912108,0.1062485694666972
-0.2910505836575875,0.11061264972915236
-0.34543373769741353,0.09953459983215075
-0.39780270084687575,0.08207827878233005
-0.46259250782024874,0.07066453040360113
-0.5327534905012589,0.06596475165941862
-0.5273823147936216,0.06126497291523613
-0.47367055771725036,0.0528725108720531
-0.39914549477378497,0.042801556420233464
-0.30548561837186233,0.029037918669413288
-0.16952773327229725,0.00788891432059205
0.1057450217441062,-0.020981155107957578
0.3837033646143282,-0.05488670176241703
0.5622949568932631,-0.09231708247501334
0.6603189135576409,-0.12639047837033646
0.6972457465476463,-0.1411612115663386
0.6730754558632792,-0.14334325169756618
0.5945220111390859,-0.14267185473411154
0.45587853818570223,-0.1351186388952468
0.21048294804303044,-0.12236209658960862
-0.022156099794003202,-0.11161974517433432
-0.18295567254139009,-0.10826276035706112
-0.29776455329213397,-0.11161974517433432
-0.3696040283817807,-0.11464103150988021
-0.4192874036774243,-0.11497672999160755
-0.48474860761425187,-0.10893415732051576
-0.5129472800793468,-0.10121309224078735
-0.5186541542687114,-0.09617761501487754
-0.4706492713817043,-0.0908064393072404
-0.41156633859769587,-0.08711375600823987
-0.32697032120241093,-0.08342107270923933
-0.1708705271992065,-0.07267872129396505
0.09701686121919585,-0.059250782024872196
0.3796749828336003,-0.050690470740825506
0.5565880827038986,-0.049347676813916226
0.6522621499961851,-0.04061951628900587
0.6898603799496451,-0.011245899137865261
0.6764324406805524,0.032730601968413826
0.5985503929198138,0.07737850003814756
0.4260013733119707,0.1032272831311513
0.17691309987029832,0.10994125276569772
-0.044647898069733724,0.10255588616769665
-0.18832684824902723,0.08979934386205844
-0.2776226443884947,0.07536430914778362
-0.3632257572289616,0.06294346532387274
-0.4293583581292439,0.055390249485008015
-0.5025406271457998,0.05488670176241703
-0.5351033798733501,0.0528725108720531
-0.5226825360494392,0.043472953383688104
-0.4864271000228885,0.025345235370412753
-0.40787365529869535,0.0025177386129549098
-0.33066300450141145,-0.028030823224231328
-0.17389181353475242,-0.06260776684214542
0.11380178530556191,-0.09231708247501334
0.3910887312123293,-0.11598382543678949
0.5525597009231707,-0.13545433737697413
0.6374914168001832,-0.14720378423743039
0.6710612649729152,-0.1411612115663386
0.646890974288548,-0.1257190814068818
0.5864652475776303,-0.11464103150988021
0.42465857938506135,-0.10893415732051576
0.15811398489356832,-0.1065842679484245
-0.0694895857175555,-0.10423437857633323
-0.21652552071412223,-0.09953459983215075
-0.29440756847486077,-0.0971847104600595
-0.35214770733196,-0.09819180590524147
-0.42465857938506135,-0.09987029831387809
-0.4766918440527962,-0.09483482108796826
-0.517311360341802,-0.08744945448996719
-0.5085831998168918,-0.0797283894102388
-0.44748607614251923,-0.06965743495841917
-0.3944457160296025,-0.060761425192645144
-0.32126344701304643,-0.05522240024414436
-0.18295567254139009,-0.05253681239032577
0.09097428854810408,-0.04548714427405204
0.3675898374914168,-0.028366521705958644
0.5582665751125353,0.004196231021591517
0.646890974288548,0.048844129091325246
0.6683756771190966,0.08644235904478523
0.6549477378500038,0.10591287098496985
0.5743801022354467,0.10926985580224306
0.4317082475013352,0.09919890135042343
0.18631265735866331,0.08644235904478523
-0.050019073777370866,0.07838559548332952
-0.1782558937972076,0.0750286106660563
-0.27695124742504,0.06831464103150987
-0.34845502403295947,0.0520332646677348
-0.4031738765545128,0.03474479285877775
-0.4756847486076141,0.02668802929732204
-0.5065690089265278,0.019638361181048294
-0.4971694514381629,-0.0008392462043183033
-0.45151445792324707,-0.03843747615777828
-0.3877317463950561,-0.08493171587701229
-0.3017929350728618,-0.12202639810788128
-0.14267185473411154,-0.1381399252307927
0.11245899137865262,-0.139482719157702
0.3904173342488746,-0.13679713130388343
0.575722896162356,-0.12773327229724574
0.6717326619363697,-0.11564812695506219
0.6851606012054626,-0.10759136339360646
0.6482337682154573,-0.10154879072251469
0.5918364232852674,-0.09651331349660487
0.4155947203784237,-0.09147783627069504
0.1782558937972076,-0.08896009765774013
-0.0426337071793698,-0.08744945448996719
-0.20309758144502937,-0.08543526359960325
-0.2903791866941329,-0.08644235904478523
-0.36221866178377965,-0.08778515297169451
-0.40787365529869535,-0.08409246967269397
-0.45352864881361105,-0.07200732433051041
-0.5038834210727092,-0.06160067139696345
-0.5018692301823452,-0.05387960631723506
-0.46359960326543065,-0.0481727321278706
-0.3870603494316014,-0.04313725490196078
-0.29474326695658803,-0.029709315632867935
-0.14468604562447548,-0.0015106431677729458
0.11783016708628975,0.03810177767605096
0.3820248722056916,0.07771419851987486
0.5646448462653544,0.10171663996337835
0.6455481803616389,0.10943770504310674
0.6703898680094605,0.10255588616769665
0.6388342107270923,0.08778515297169451
0.5622949568932631,0.07570000762951096
0.406530861371786,0.06562905317769131
0.14804303044174866,0.05354390783550774
-0.07351796749828336,0.04213015945677882
-0.21518272678721292,0.03440909437705043
-0.31454947737850003,0.025009536888685433
-0.3769893949797818,0.009903105210955977
-0.43875791561760885,-0.007217517357137408
-0.4783703364614328,-0.030045014114595252
-0.5011978332188906,-0.06361486228732739
-0.4971694514381629,-0.10171663996337835
-0.46024261844815745,-0.13444724193179217
-0.3944457160296025,-0.14988937209124895
-0.3041428244449531,-0.15056076905470359
-0.14804303044174866,-0.14250400549324788
0.1232013427939269,-0.13444724193179217
0.38101777676050963,-0.13209735255970093
0.564309147783627,-0.13058670939192796
0.6643472953383688,-0.12370489051651787
0.675089646753643,-0.11363393606469825
0.6509193560692759,-0.10691996643015184
0.5636377508201724,-0.1062485694666972
0.39713130388342105,-0.10926985580224306
0.1534142061493858,-0.10994125276569772
-0.08929579613946745,-0.10557717250324253
-0.22491798275730523,-0.09752040894178682
-0.3017929350728618,-0.08677805752651253
-0.36691844052796213,-0.07821774624246586
-0.4300297550926986,-0.06965743495841917
-0.4891126878767071,-0.06092927443350881
-0.5065690089265278,-0.05387960631723506
-0.4850843060959793,-0.04649423971923399
-0.44748607614251923,-0.029709315632867935
-0.3816891737239643,-0.00016784924086366064
-0.30380712596322573,0.04011596856641489
-0.14267185473411154,0.07603570611123828
0.12454413672083621,0.0971847104600595
0.3927672236209659,0.1032272831311513
0.5575951781490806,0.10054169527733271
0.6509193560692759,0.09684901197833219
0.6707255664911879,0.08778515297169451
0.6294346532387274,0.06965743495841917
0.5703517204547187,0.05085831998168917
0.39713130388342105,0.03608758678568704
0.15475700007629511,0.027023727779049357
-0.07150377660791943,0.020645456626230255
-0.22189669642175933,0.011581597619592583
-0.29340047302967875,-0.011581597619592583
-0.35214770733196,-0.048676279850461586
-0.4192874036774243,-0.0861066605630579
-0.47031357289997716,-0.11296253910124363
-0.4944838635843442,-0.12504768444342718
-0.48374151216906996,-0.1253833829251545
-0.44144350347142747,-0.12001220721751735
-0.3870603494316014,-0.11296253910124363
-0.30380712596322573,-0.1062485694666972
-0.138979171435111,-0.09752040894178682
0.13528648813611044,-0.08845654993514916
0.3877317463950561,-0.08342107270923933
0.5851224536507209,-0.08342107270923933
0.6586404211490042,-0.08274967574578469
0.6650186923018233,-0.08342107270923933
0.6294346532387274,-0.08946364538033112
0.5488670176241703,-0.09365987640192262
0.39578850995651177,-0.09147783627069504
0.14804303044174866,-0.08342107270923933
-0.08627450980392155,-0.07217517357137408
-0.23263904783703362,-0.062272068360418105
-0.30783550774395363,-0.05824368657969024
-0.36826123445487147,-0.053208209353780414
-0.43271534294651715,-0.042465857938506144
-0.4864271000228885,-0.026352330815594724
-0.5105973907072556,-0.006378271152819104
-0.4951552605477989,0.02366674296177615
-0.4407721065079728,0.06025787747005417
-0.37430380712596323,0.0891279468986038
-0.2782940413519493,0.10591287098496985
-0.1292439154650187,0.10977340352483406
0.13662928206301975,0.10087739375906005
0.39713130388342105,0.08023193713282978
0.573708705271992,0.06025787747005417
0.6831464103150988,0.05085831998168917
0.6737468528267337,0.042801556420233464
0.6341344319829099,0.03474479285877775
0.5649805447470816,0.027695124742504008
0.4035095750362402,0.017288471808957043
0.1722133211261158,-0.00016784924086366064
-0.06243991760128176,-0.02937361715114061
-0.2272678721293965,-0.06764324406805522
-0.31320668345159075,-0.10691996643015184
-0.3561760891126879,-0.13579003585870145
-0.41458762493324175,-0.14384679942015716
-0.4662851911192492,-0.13780422674906534
-0.4783703364614328,-0.1287403677424277
-0.47367055771725036,-0.12236209658960862
-0.4394293125810635,-0.11648737315938049
-0.3602044708934157,-0.11363393606469825
-0.2621805142290379,-0.11464103150988021
-0.09735255970092317,-0.11313038834210726
0.15677119096665904,-0.10725566491187914
0.417944609750515,-0.10121309224078735
0.5763942931258106,-0.09315632867933166
0.6536049439230944,-0.08577096208133059
0.6831464103150988,-0.08157473105973906
0.6334630350194552,-0.08140688181887541
0.5515526054779888,-0.08107118333714809
0.3890745403219653,-0.0780498970016022
0.15072861829556725,-0.07200732433051041
-0.07620355535210192,-0.06327916380560006
-0.23263904783703362,-0.052201113908598454
-0.3024643320363164,-0.042465857938506144
-0.37766079194323643,-0.029037918669413288
-0.43405813687342637,-0.0025177386129549098
-0.4864271000228885,0.03675898374914168
-0.5119401846341649,0.0703288319218738
-0.4756847486076141,0.0908064393072404
-0.44211490043488205,0.1002059967956054
-0.3769893949797818,0.09919890135042343
-0.29306477454795143,0.0908064393072404
-0.1279011215381094,0.07838559548332952
0.15677119096665904,0.06562905317769131
0.406530861371786,0.05421530479896238
0.5743801022354467,0.0481727321278706
0.6542763408865492,0.044815747310597384
0.6670328831921873,0.03675898374914168
0.6341344319829099,0.019974059662775615
0.547524223697261,-0.007217517357137408
0.3944457160296025,-0.042801556420233464
0.1487144274052033,-0.08039978637369342
-0.08896009765774013,-0.11514457923247119
-0.23935301747158008,-0.13612573434042877
-0.3138780804150454,-0.14418249790188448
-0.37094682230868997,-0.1398184176394293
-0.44647898069733727,-0.12236209658960862
-0.4944838635843442,-0.10490577553978789
-0.517311360341802,-0.09852750438696878
-0.5025406271457998,-0.10154879072251469
-0.44614328221561,-0.10591287098496985
-0.39511711299305713,-0.10725566491187914
-0.30783550774395363,-0.10893415732051576
-0.14334325169756618,-0.10994125276569772
0.12588693064774548,-0.10826276035706112
0.40988784618905927,-0.10087739375906005
0.5763942931258106,-0.09147783627069504
0.6670328831921873,-0.08577096208133059
0.6791180285343709,-0.08090333409628443
0.6401770046540016,-0.07536430914778362
0.5622949568932631,-0.06881818875410085
0.3917601281757839,-0.06025787747005417
0.14132906080720226,-0.0481727321278706
-0.09970244907301441,-0.0323949034866865
-0.24472419317921723,-0.008560311284046692
-0.31622796978713663,0.025345235370412753
-0.3712825207904173,0.06495765621423667
-0.4360723277637903,0.10188448920424201
-0.5079118028534371,0.1232013427939269
-0.5240253299763484,0.12370489051651787
-0.49314106965743487,0.11195544365606165
-0.4394293125810635,0.09651331349660487
-0.37228961623559925,0.0797283894102388
-0.3024643320363164,0.06462195773250935
-0.13327229724574652,0.05354390783550774
0.1420004577706569,0.043976501106279084
0.40619516289005875,0.03172350652323186
0.590493629358358,0.0213168535896849
0.6643472953383688,0.008560311284046692
0.676096742198825,-0.01896696421759365
0.6240634775310901,-0.05790798809796292
0.5394674601358053,-0.09819180590524147
0.39578850995651177,-0.1270618753337911
0.16348516060120546,-0.13998626688029298
-0.07016098268101013,-0.1398184176394293
-0.23263904783703362,-0.12974746318760969
-0.31186388952468147,-0.11850156404974439
-0.37094682230868997,-0.10994125276569772
-0.41727321278706037,-0.1054093232623789
-0.47769893949797815,-0.10255588616769665
-0.5253681239032578,-0.10121309224078735
-0.4850843060959793,-0.10255588616769665
-0.4333867399099718,-0.10490577553978789
-0.37531090257114513,-0.10809491111619743
-0.2876935988403143,-0.11061264972915236
-0.1279011215381094,-0.10759136339360646
0.15408560311284045,-0.10087739375906005
0.4119020370794232,-0.09449912260624094
0.5878080415045395,-0.08409246967269397
0.6804608224612801,-0.06999313344014649
0.6979171435111009,-0.05656519417105363
0.6495765621423666,-0.04599069199664301
0.5502098115510795,-0.036423285267414354
0.39578850995651177,-0.020981155107957578
0.15240711070420385,0.007217517357137408
-0.08426031891355765,0.04783703364614328
-0.23532463569085216,0.08677805752651253
-0.3215991454947737,0.10691996643015184
-0.37161821927214467,0.10859845883878842
-0.42465857938506135,0.10389868009460593
-0.47702754253452356,0.09785610742351414
-0.5032120241092546,0.08979934386205844
-0.49314106965743487,0.07603570611123828
-0.44480048828870067,0.05354390783550774
-0.3944457160296025,0.033401998931868467
-0.29910734721904325,0.020477607385366595
-0.12655832761120012,0.011078049897001601
0.14468604562447548,0.0021820401312275884
0.4236514839398794,-0.016617074845502403
0.5767299916075379,-0.044480048828870064
0.6562905317769131,-0.07704280155642022
0.6713969634546425,-0.11061264972915236
0.6482337682154573,-0.13444724193179217
0.554909590295262,-0.14351110093842984
0.37430380712596323,-0.13914702067597465
0.13931486991683834,-0.12639047837033646
-0.07821774624246586,-0.11464103150988021
-0.2272678721293965,-0.11262684061951626
-0.31320668345159075,-0.11833371480888075
-0.3904173342488746,-0.11900511177233539
-0.45050736247806505,-0.11514457923247119
-0.5149614709697108,-0.11195544365606165
-0.528725108720531,-0.11262684061951626
-0.49347676813916225,-0.11161974517433432
-0.4615854123750668,-0.10691996643015184
-0.39142442969405655,-0.0988632028686961
-0.3226062409399557,-0.0908064393072404
-0.14401464866102082,-0.08274967574578469
0.14468604562447548,-0.07872129396505684
0.41593041886015103,-0.07133592736705577
0.5918364232852674,-0.05824368657969024
0.675089646753643,-0.04515144579232471
0.703288319218738,-0.029037918669413288
0.6710612649729152,0.0005035477225909818
0.5891508354314489,0.04011596856641489
0.40115968566414895,0.07704280155642022
0.1594567788204776,0.1032272831311513
-0.05471885252155337,0.11598382543678949
-0.22189669642175933,0.11665522240024415
-0.29440756847486077,0.10926985580224306
-0.34744792858777757,0.10171663996337835
-0.4155947203784237,0.09584191653315023
-0.47702754253452356,0.08375677119096665
-0.5253681239032578,0.06294346532387274
-0.49582665751125343,0.04649423971923399
-0.44345769436179144,0.03978027008468757
-0.37766079194323643,0.035416189822232394
-0.2903791866941329,0.019974059662775615
-0.14267185473411154,-0.010238803692683297
0.15274280918593117,-0.05387960631723506
0.4360723277637903,-0.09752040894178682
0.6032501716639962,-0.12521553368429084
0.675089646753643,-0.13881132219424736
0.6965743495841917,-0.14317540245670252
0.6693827725642786,-0.1351186388952468
0.5676661326009002,-0.12169069962615398
0.40115968566414895,-0.11464103150988021
0.14804303044174866,-0.11564812695506219
-0.07687495231555656,-0.11430533302815289
-0.2124971389333944,-0.11094834821087966
-0.31320668345159075,-0.11061264972915236
-0.37228961623559925,-0.11329823758297093
-0.43204394598306245,-0.11631952391851681
-0.48575570305943383,-0.11262684061951626
-0.5132829785610742,-0.10289158464942397
-0.5105973907072556,-0.0955062180514229
-0.4478217746242466,-0.08761730373083085
-0.36423285267414357,-0.07939269092851148
-0.2910505836575875,-0.07234302281223774
-0.13058670939192796,-0.06596475165941862
0.1406576638437476,-0.06210421911955444
0.40787365529869535,-0.05656519417105363
0.5770656900892653,-0.03843747615777828
0.6656900892652781,-0.004531929503318838
0.6791180285343709,0.03743038071259632
0.6401770046540016,0.07335011825741969
0.566323338673991,0.09517051956969558
0.3944457160296025,0.10725566491187914
0.15408560311284045,0.10926985580224306
-0.07956054016937514,0.10054169527733271
-0.2212252994583047,0.08778515297169451
-0.3017929350728618,0.07905699244678416
-0.39780270084687575,0.07234302281223774
-0.44882887006942845,0.06126497291523613
-0.5099259937438011,0.04783703364614328
-0.5481956206607157,0.0387731746395056
-0.5314106965743495,0.02668802929732204
-0.46695658808270396,0.003860532539864194
-0.3843747615777829,-0.029709315632867935
-0.30783550774395363,-0.0703288319218738
-0.14804303044174866,-0.10893415732051576
0.12051575494010834,-0.12941176470588234
0.3837033646143282,-0.12974746318760969
0.5723659113450827,-0.12303349355306323
0.66669718471046,-0.11631952391851681
0.6898603799496451,-0.10457007705806058
0.6438696879530023,-0.09181353475242236
0.554909590295262,-0.08476386663614863
0.3890745403219653,-0.08140688181887541
0.138979171435111,-0.0861066605630579
-0.064789806973373,-0.09987029831387809
-0.21853971160448613,-0.11296253910124363
-0.31992065308613715,-0.11699092088197145
-0.3890745403219653,-0.11161974517433432
-0.44882887006942845,-0.10490577553978789
-0.49314106965743487,-0.09953459983215075
-0.5293965056839857,-0.09584191653315023
-0.5112687876707103,-0.0908064393072404
-0.46494239719234,-0.08426031891355765
-0.39511711299305713,-0.07402151522087433
-0.307164110780499,-0.05857938506141757
-0.1500572213321126,-0.040451667048142216
0.1406576638437476,-0.01594567788204776
0.41055924315251385,0.022323949034866862
0.5951934081025406,0.06764324406805522
0.6858319981689174,0.10188448920424201
0.6999313344014648,0.11564812695506219
0.6868390936140993,0.11531242847333485
0.5985503929198138,0.10910200656137943
0.42398718242160677,0.10255588616769665
0.1688563363088426,0.09315632867933166
-0.07150377660791943,0.07838559548332952
-0.20981155107957578,0.06126497291523613
-0.29575036240177,0.04917982757305257
-0.37228961623559925,0.04515144579232471
-0.4360723277637903,0.035416189822232394
-0.5045548180361639,0.010406652933546959
-0.519325551232166,-0.02400244144350347
-0.510933089188983,-0.058915083543144876
-0.4682993820096132,-0.09214923323414968
-0.4058594644083314,-0.11934081025406272
-0.3105210955977722,-0.13746852826733807
-0.13797207598992905,-0.14737163347829402
0.1326009002822919,-0.147875181200885
0.41593041886015103,-0.13679713130388343
0.5810940718699931,-0.12169069962615398
0.6737468528267337,-0.11430533302815289
0.7012741283283741,-0.11363393606469825
0.6656900892652781,-0.11396963454642556
0.5945220111390859,-0.11161974517433432
0.41055924315251385,-0.10893415732051576
0.1594567788204776,-0.10977340352483406
-0.06344701304646372,-0.11027695124742502
-0.20779736018921185,-0.10893415732051576
-0.2923933775844968,-0.10557717250324253
-0.36591134508278017,-0.09483482108796826
-0.44614328221561,-0.08358892195010299
-0.5072404058899825,-0.07603570611123828
-0.528725108720531,-0.06898603799496453
-0.5159685664148927,-0.05958648050659952
-0.4662851911192492,-0.04716563668268864
-0.38974593728541995,-0.0323949034866865
-0.31186388952468147,-0.008560311284046692
-0.1453574425879301,0.02400244144350347
0.13662928206301975,0.057572289616235596
0.40854505226215004,0.0844281681544213
0.6119783321889066,0.10104524299992369
0.6905317769130999,0.10691996643015184
0.6979171435111009,0.10188448920424201
0.658304722667277,0.09181353475242236
0.5770656900892653,0.08308537422751203
0.42465857938506135,0.07603570611123828
0.15408560311284045,0.06630045014114595
-0.0788891432059205,0.053208209353780414
-0.22424658579385062,0.036423285267414354
-0.3111924925612268,0.021652552071412222
-0.37430380712596323,0.004867627985046159
-0.4394293125810635,-0.02366674296177615
-0.5092545967803463,-0.05992217898832684
-0.5488670176241703,-0.0963454642557412
-0.5293965056839857,-0.12252994583047226
-0.49112687876707095,-0.13444724193179217
-0.41324483100633247,-0.1347829404135195
-0.29910734721904325,-0.12672617685206378
-0.1359578850995651,-0.11866941329060808
0.1420004577706569,-0.11564812695506219
0.40787365529869535,-0.11262684061951626
0.5985503929198138,-0.11161974517433432
0.6992599374380102,-0.11094834821087966
0.6838178072785533,-0.11128404669260701
0.6438696879530023,-0.11363393606469825
0.5690089265278097,-0.11229114213778896
0.40115968566414895,-0.1062485694666972
0.16281376363775082,-0.09819180590524147
-0.08023193713282978,-0.0955062180514229
-0.22861066605630578,-0.09584191653315023
-0.31857785915922787,-0.08879224841687647
-0.3904173342488746,-0.0767071030746929
-0.45218585488670177,-0.0639505607690547
-0.5095902952620737,-0.05522240024414436
-0.5314106965743495,-0.04582284275577936
-0.5166399633783474,-0.021988250553139542
-0.4823987182421607,0.017288471808957043
-0.41962310215915155,0.06025787747005417
-0.3024643320363164,0.09382772564278628
-0.10910200656137943,0.1096055542839704
0.14032196536202027,0.11195544365606165
0.4038452735179675,0.1096055542839704
0.5891508354314489,0.10188448920424201
0.6871747920958267,0.09114213778896772
0.7140306706340124,0.07905699244678416
0.6677042801556421,0.06965743495841917
0.5864652475776303,0.05958648050659952
0.4038452735179675,0.04682993820096131
0.15475700007629511,0.03205920500495917
-0.060090028229190504,0.011581597619592583
-0.20578316929884793,-0.01695277332722972
-0.29306477454795143,-0.048844129091325246
-0.380346379797055,-0.08207827878233005
-0.45050736247806505,-0.11296253910124363
-0.5072404058899825,-0.1317616540779736
-0.528725108720531,-0.1398184176394293
-0.5105973907072556,-0.13545433737697413
-0.48407721065079723,-0.12068360418097199
-0.41257343404287783,-0.1096055542839704
-0.32394903486686505,-0.10893415732051576
-0.14670023651483938,-0.11464103150988021
0.1420004577706569,-0.12101930266269931
0.39578850995651177,-0.12169069962615398
0.5851224536507209,-0.12101930266269931
0.6643472953383688,-0.11984435797665367
0.6895246814679179,-0.11799801632715344
0.6703898680094605,-0.11094834821087966
0.5884794384679941,-0.09987029831387809
0.4313725490196079,-0.0908064393072404
0.17624170290684368,-0.08476386663614863
-0.054047455558098714,-0.0775463492790112
-0.1990691996643015,-0.07133592736705577
-0.2756084534981307,-0.06126497291523613
-0.34543373769741353,-0.04615854123750667
-0.43875791561760885,-0.025680933852140077
-0.5105973907072556,0.004867627985046159
-0.5428244449530785,0.043808651865415424
-0.5146257724879835,0.08207827878233005
-0.46359960326543065,0.1032272831311513
-0.40988784618905927,0.10725566491187914
-0.3091783016708629,0.10305943389028763
-0.1292439154650187,0.09701686121919585
0.15274280918593117,0.09181353475242236
0.4280155642023346,0.08409246967269397
0.5878080415045395,0.07301441977569237
0.686503395132372,0.06160067139696345
0.6885175860227359,0.04917982757305257
0.6549477378500038,0.03810177767605096
0.5891508354314489,0.024505989166094453
0.42532997634851605,0.003860532539864194
0.17288471808957045,-0.025680933852140077
-0.07553215838864728,-0.06126497291523613
-0.2212252994583047,-0.09684901197833219
-0.3091783016708629,-0.12437628747997252
-0.3763179980163271,-0.13847562371252
-0.4495002670328832,-0.13847562371252
-0.5293965056839857,-0.12806897077897306
-0.5488670176241703,-0.11430533302815289
-0.5267109178301671,-0.10490577553978789
-0.46494239719234,-0.09987029831387809
-0.39377431906614785,-0.0988632028686961
-0.30783550774395363,-0.10154879072251469
-0.12655832761120012,-0.10759136339360646
0.14972152285038529,-0.11229114213778896
0.4213015945677882,-0.11296253910124363
0.6163424124513618,-0.11229114213778896
0.6992599374380102,-0.10759136339360646
0.7113450827801938,-0.09684901197833219
0.6616617074845501,-0.08274967574578469
0.5770656900892653,-0.07100022888532845
0.4119020370794232,-0.06495765621423667
0.16281376363775082,-0.0639505607690547
-0.07956054016937514,-0.06092927443350881
-0.2299534599832151,-0.04750133516441596
-0.3068284122987716,-0.01695277332722972
-0.3796749828336003,0.02400244144350347
-0.44748607614251923,0.06697184710460058
-0.5246967269398031,0.09953459983215075
-0.5669947356374456,0.11598382543678949
-0.5320820935378041,0.12101930266269931
-0.48374151216906996,0.11447318226901655
-0.4112306401159686,0.10457007705806058
-0.31320668345159075,0.09483482108796826
-0.14569314106965742,0.08308537422751203
0.14737163347829402,0.07066453040360113
0.4038452735179675,0.05656519417105363
0.5710231174181735,0.04145876249332417
0.6777752346074616,0.030045014114595252
0.7039597161821927,0.01829556725413901
0.6562905317769131,-0.006378271152819104
0.5515526054779888,-0.04515144579232471
0.3941100175478751,-0.08375677119096665
0.1534142061493858,-0.11229114213778896
-0.05941863126573587,-0.13075455863279162
-0.21518272678721292,-0.13914702067597465
-0.31320668345159075,-0.13679713130388343
-0.3749752040894178,-0.1317616540779736
-0.44345769436179144,-0.12504768444342718
-0.4971694514381629,-0.11648737315938049
-0.5206683451590752,-0.1079270618753338
-0.5186541542687114,-0.0988632028686961
-0.45420004577706563,-0.09349202716105898
-0.40183108262760353,-0.09584191653315023
-0.3091783016708629,-0.10289158464942397
-0.12018005645838101,-0.10691996643015184
0.15878538185702296,-0.10356298161287861
0.41257343404287783,-0.09181353475242236
0.5817654688334477,-0.08073548485542076
0.6777752346074616,-0.07402151522087433
0.7086594949263753,-0.06965743495841917
0.6724040588998245,-0.06663614862287326
0.5740444037537193,-0.061936369878690785
0.39713130388342105,-0.053208209353780414
0.16214236667429618,-0.035751888303959714
-0.06546120393682765,-0.006546120393682764
-0.20846875715266647,0.03608758678568704
