EMG Sensor 0
0.0
0.0
0.0
0.0
0.0
0.0
0.0
0.0
0.0
0.0
0.0
0.0
0.0
0.0
0.0
0.0
0.0
0.0
0.0
0.0
0.0
0.0
0.0
0.0
0.0
0.0
0.0
0.0
0.0
0.0
0.0
0.0
0.0
0.0
0.0
0.0
0.0
0.0
0.0
0.0
0.0
0.0
0.0
0.0
0.0
0.0
0.0
0.0
0.0
0.0
0.0
0.0
0.0
0.0
0.0
0.0
0.0
0.0
0.0
0.0
0.0
0.0
0.0
0.0
0.0
0.0
0.0
0.0
0.0
0.0
0.0
0.0
0.0
0.0
0.0
0.0
0.0
0.0
0.0
0.0
0.0
0.0
0.0
0.0
0.0
0.0
0.0
0.0
0.0
0.0
0.0
0.0
0.0
0.0
0.0
0.0
0.0
0.0
0.0
0.0
0.0
0.0
0.0
0.0
0.0
0.0
0.0
0.0
0.0
0.0
0.0
0.0
0.0
0.0
0.0
0.0
0.0
0.0
0.0
0.0
0.0
0.0
0.0
0.0
0.0
0.0
0.0
0.0
0.0
0.0
0.0
0.0
0.0
0.0
0.0
0.0
0.0
0.0
0.0
0.0
0.0
0.0
0.0
0.0
0.0
0.0
0.0
0.0
0.0
0.0
0.0
0.0
0.0
0.0
0.0
0.0
0.0
0.0
0.0
0.0
0.0
0.0
0.0
0.0
0.0
0.0
0.0
0.0
0.0
0.0
0.0
0.0
0.0
0.0
0.0
0.0
0.0
0.0
0.0
0.0
0.0
0.0
0.0
0.0
0.0
0.0
0.0
0.0
0.0
0.0
0.0
0.0
0.0
0.0
0.0
0.0
0.0
0.0
0.0
0.0
0.0
0.0
0.0
0.0
0.0
0.0
0.0
0.0
0.0
0.0
0.0
0.0
0.0
0.0
0.0
0.0
0.0
0.0
0.0
0.0
0.0
0.0
0.0
0.0
0.0
0.0
0.0
0.0
0.0
0.0
0.0
0.0
0.0
0.0
0.0
0.0
0.0
0.0
0.0
0.0
0.0
0.0
0.0
0.0
0.0
0.0
0.0
0.0
0.0
0.0
0.0
0.0
0.0
0.0
0.0
0.0
0.0
0.0
0.0
0.0
0.0
0.0
0.0
0.0
0.0
0.0
0.0
0.0
0.0
0.0
0.0
0.0
0.0
0.0
0.0
0.0
0.0
0.0
0.0
0.0
0.0
0.0
0.0
0.0
0.0
0.0
0.0
0.0
0.0
0.0
0.0
0.0
0.0
0.0
0.0
0.0
0.0
0.0
0.0
0.0
0.0
0.0
0.0
0.0
0.0
0.0
0.0
0.0
0.0
0.0
0.0
0.0
0.0
0.0
0.0
0.0
0.0
0.0
0.0
0.0
0.0
0.0
0.0
0.0
0.0
0.0
0.0
0.0
0.0
0.0
0.0
0.0
0.0
0.0
0.0
0.0
0.0
0.0
0.0
0.0
0.0
0.0
0.0
0.0
0.0
0.0
0.0
0.0
0.0
0.0
0.0
0.0
0.0
0.0
0.0
0.0
0.0
0.0
0.0
0.0
0.0
0.0
0.0
0.0
0.0
0.0
0.0
0.0
0.0
0.0
0.0
0.0
0.0
0.0
0.0
0.0
0.0
0.0
0.0
0.0
0.0
0.0
0.0
0.0
0.0
0.0
0.0
0.0
0.0
0.0
0.0
0.0
0.0
0.0
0.0
0.0
0.0
0.0
0.0
0.0
0.0
0.0
0.0
0.0
0.0
0.0
0.0
0.0
0.0
0.0
0.0
0.0
0.0
0.0
0.0
0.0
0.0
0.0
0.0
0.0
0.0
0.0
0.0
0.0
0.0
0.0
0.0
0.0
0.0
0.0
0.0
0.0
0.0
0.0
0.0
0.0
0.0
0.0
0.0
0.0
0.0
0.0
0.0
0.0
0.0
0.0
0.0
0.0
0.0
0.0
0.0
0.0
0.0
0.0
0.0
0.0
0.0
0.0
0.0
0.0
0.0
0.0
0.0
0.0
0.0
0.0
0.0
0.0
0.0
0.0
0.0
0.0
0.0
0.0
0.0
0.0
0.0
0.0
0.0
0.0
0.0
0.0
0.0
0.0
0.0
0.0
0.0
0.0
0.0
0.0
0.0
0.0
0.0
0.0
0.0
0.0
0.0
0.0
0.0
0.0
0.0
0.0
0.0
0.0
0.0
0.0
0.0
0.0
0.0
0.0
0.0
0.0
0.0
0.0
0.0
0.0
0.0
0.0
0.0
0.0
0.0
0.0
0.0
0.0
0.0
0.0
0.0
0.0
0.0
0.0
0.0
0.0
0.0
0.0
0.0
0.0
0.0
0.0
0.0
0.0
0.0
0.0
0.0
0.0
0.0
0.0
0.0
0.0
0.0
0.0
0.0
0.0
0.0
0.0
0.0
0.0
0.0
0.0
0.0
0.0
0.0
0.0
0.0
0.0
0.0
0.0
0.0
0.0
0.0
0.0
0.0
0.0
0.0
0.0
0.0
0.0
0.0
0.0
0.0
0.0
0.0
0.0
0.0
0.0
0.0
0.0
0.0
0.0
0.0
0.0
0.0
0.0
0.0
0.0
0.0
0.0
0.0
0.0
0.0
0.0
0.0
0.0
0.0
0.0
0.0
0.0
0.0
0.0
0.0
0.0
0.0
0.0
0.0
0.0
0.0
0.0
0.0
0.0
0.0
0.0
0.0
0.0
0.0
0.0
-0.0021820401312275884
-0.13344014648661018
-0.22575722896162354
-0.27644769970244903
-0.29558251316090633
-0.29222552834363313
-0.2704051270313573
-0.23717097734035245
-0.20729381246662087
-0.21568627450980396
-0.2767833981841764
-0.3284809643701838
-0.3073319600213626
-0.23247119859617
-0.12991531242847335
-0.01292439154650187
0.08845654993514916
0.15492484931715875
0.18178072785534446
0.18916609445334553
0.19621576256961928
0.19722285801480124
0.17976653696498052
0.1586175326161593
0.14552529182879376
0.16633859769588769
0.2509346150911726
0.35332265201800567
0.39595635919737543
0.3623865110246433
0.28047608148317693
0.15828183413443195
0.007049668116273747
-0.13310444800488286
-0.23448538948653389
-0.2965896086060883
-0.3091783016708629
-0.29172198062104215
-0.2761120012207217
-0.2613412680247196
-0.2391851682307164
-0.22793926909285112
-0.26604104676890206
-0.32042420080872813
-0.3163958190280003
-0.240863660639353
-0.12974746318760969
-0.012420843823910887
0.0788891432059205
0.1381399252307927
0.17439536125734342
0.1918516823071641
0.1965514610513466
0.1952086671244373
0.18631265735866331
0.16331731136034178
0.139482719157702
0.15626764324406803
0.23448538948653389
0.32730601968413825
0.3811856260013733
0.3576867322804608
0.27510490577553975
0.16298161287861446
0.028030823224231328
-0.10759136339360646
-0.21434348058289462
-0.28886854352635993
-0.31538872358281833
-0.29457541771572443
-0.2583199816891737
-0.23012130922407872
-0.21367208361943996
-0.22877851529716942
-0.29323262378881515
-0.3440909437705043
-0.32310978866254675
-0.24254215304798965
-0.14418249790188448
-0.033401998931868467
0.0775463492790112
0.1508964675364309
0.17708094911116198
0.17976653696498052
0.18144502937361714
0.18446631570916305
0.175066758220798
0.14250400549324788
0.10641641870756083
0.11111619745174332
0.1999084458686198
0.323445487144274
0.39713130388342105
0.3778286411841001
0.29726100556954294
0.17842374303807124
0.0323949034866865
-0.11061264972915236
-0.21904325932707713
-0.2843366140230411
-0.31371023117418173
-0.3083390554665446
-0.277454795147631
-0.24187075608453498
-0.21434348058289462
-0.2093080033569848
-0.2542915999084459
-0.3210955977721828
-0.3291523613336385
-0.2566414892805371
-0.1534142061493858
-0.03776607919432364
0.07570000762951096
0.13998626688029298
0.17204547188525215
0.19856565194171052
0.20796520943007551
0.20662241550316623
0.20192263675898375
0.19118028534370946
0.17573815518425268
0.17708094911116198
0.24623483634699012
0.3556725413900969
0.4238193331807431
0.4033417257953765
0.32042420080872813
0.21467917906462194
0.08039978637369342
-0.06865033951323721
-0.19084458686198216
-0.2581521324483101
-0.2821545738918135
-0.2928969253070878
-0.29860379949645227
-0.2757763027389944
-0.24119935912108034
-0.22105745021744103
-0.2472419317921721
-0.31001754787518115
-0.32780956740672923
-0.2613412680247196
-0.1576104371709773
-0.050522621499961846
0.056900892652780956
0.1414969100480659
0.1874876020447089
0.20863660639353018
0.20662241550316623
0.1982299534599832
0.19386587319752804
0.17204547188525215
0.14418249790188448
0.1569390402075227
0.23465323872739755
0.34744792858777757
0.41811245899137867
0.408041504539559
0.33620202944991223
0.21602197299153122
0.05522240024414436
-0.10356298161287861
-0.22206454566262301
-0.28584725719081405
-0.30280003051804383
-0.3111924925612268
-0.30666056305790795
-0.27946898603799497
-0.24019226367589838
-0.21635767147325857
-0.24254215304798965
-0.3046463721675441
-0.32310978866254675
-0.26419470511940185
-0.16801709010452429
-0.060593575951781484
0.048508430609597926
0.12068360418097199
0.15492484931715875
0.18144502937361714
0.19789425497825588
0.19588006408789194
0.18345922026398107
0.17238117036697947
0.16231021591515984
0.1552605477988861
0.1918516823071641
0.29994659342336155
0.40099183642328523
0.41676966506446933
0.35298695353627835
0.22072175173571373
0.056900892652780956
-0.08879224841687647
-0.1935301747158007
-0.2576485847257191
-0.286854352635996
-0.29826810101472495
-0.29709315632867933
-0.277454795147631
-0.24556343938353548
-0.21434348058289462
-0.23045700770580602
-0.3002822919050888
-0.3372091248950942
-0.28148317692835884
-0.17875944151979858
-0.06999313344014649
0.03944457160296025
0.12991531242847335
0.18245212481879908
0.19050888838025481
0.17640955214770732
0.17305256733043411
0.17557030594338902
0.17036697947661553
0.16331731136034178
0.15022507057297627
0.18580910963607233
0.29390402075226973
0.3919279774166476
0.40971999694819555
0.35265125505455097
0.24019226367589838
0.08812085145342184
-0.06831464103150987
-0.19218738078889144
-0.2620126649881742
-0.28886854352635993
-0.29625391012436103
-0.2928969253070878
-0.26604104676890206
-0.23717097734035245
-0.2203860532539864
-0.24069581139848936
-0.29826810101472495
-0.3252918287937743
-0.28551155870908673
-0.20628671702143891
-0.1002059967956054
0.020309758144502935
0.12034790569924468
0.17842374303807124
0.18983749141680015
0.18110933089188982
0.18043793392843518
0.18178072785534446
0.17674525062943464
0.166674296177615
0.15291065842679483
0.18429846646829937
0.2787975890745403
0.37380025940337225
0.40468451972228575
0.3633936064698253
0.2583199816891737
0.1062485694666972
-0.04716563668268864
-0.17372396429388878
-0.24925612268253605
-0.2720836194399938
-0.2754406042572671
-0.27309071488517583
-0.2640268558785382
-0.2509346150911726
-0.23649958037689783
-0.24959182116426334
-0.2996108949416343
-0.32646677347981995
-0.30112153810940717
-0.22844281681544215
-0.11934081025406272
0.009231708247501335
0.11715877012283514
0.17708094911116198
0.1874876020447089
0.17607385366598
0.17305256733043411
0.17238117036697947
0.16768139162279697
0.16231021591515984
0.15794613565270463
0.18580910963607233
0.28500801098649575
0.3878995956359197
0.4207980468451973
0.37413595788509957
0.2737621118486305
0.13847562371252
-0.025680933852140077
-0.18580910963607233
-0.2834973678187228
-0.3103532463569085
-0.3017929350728618
-0.28014038300144956
-0.2710765239948119
-0.26469825284199283
-0.24052796215762567
-0.24052796215762567
-0.29423971923399705
-0.33250934615091166
-0.3002822919050888
-0.21367208361943996
-0.10054169527733271
0.01628137636377508
0.11128404669260701
0.1790951400015259
0.2089723048752575
0.20091554131380177
0.19252307927061874
0.18983749141680015
0.18245212481879908
0.1700312809948882
0.15458915083543145
0.17540245670252536
0.2569771877622644
0.34795147631036855
0.38924238956282897
0.36775768673228043
0.2910505836575875
0.15626764324406803
-0.021652552071412222
-0.17842374303807124
-0.267048142214084
-0.3016250858319981
-0.3068284122987716
-0.29054703593499653
-0.26839093614099335
-0.2532845044632639
-0.23817807278553446
-0.23952086671244371
-0.28282597085526817
-0.3180743114366369
-0.3022964827954528
-0.2333104448004883
-0.12437628747997252
0.0005035477225909818
0.10356298161287861
0.1696955825131609
0.19856565194171052
0.20225833524071107
0.19084458686198216
0.17758449683375294
0.17070267795834287
0.16633859769588769
0.16466010528725106
0.18815899900816355
0.2554665445944915
0.3388876173037308
0.3862211032272831
0.36171511406118867
0.28047608148317693
0.15895323109788664
0.0052033264667734795
-0.1445181963836118
-0.2438849469748989
-0.2831616693369955
-0.28886854352635993
-0.2757763027389944
-0.25999847409781035
-0.24992751964599072
-0.23247119859617
-0.22844281681544215
-0.27141222247653923
-0.31169604028381775
-0.29088273441672385
-0.2166933699549859
-0.1304188601510643
-0.03910887312123293
0.06361486228732739
0.15156786449988555
0.2025940337224384
0.22777141985198748
0.22323949034866863
0.20662241550316623
0.1999084458686198
0.20057984283207447
0.2012512397955291
0.21652552071412223
0.2767833981841764
0.3602044708934157
0.40971999694819555
0.38924238956282897
0.31538872358281833
0.18782330052643625
0.01829556725413901
-0.1445181963836118
-0.2472419317921721
-0.2861829556725414
-0.29054703593499653
-0.2781261921110857
-0.26234836346990154
-0.24606698710612646
-0.23649958037689783
-0.250263218127718
-0.3046463721675441
-0.3548332951857786
-0.3304951552605478
-0.23649958037689783
-0.14586099031052108
-0.05790798809796292
0.04548714427405204
0.1347829404135195
0.18345922026398107
0.20057984283207447
0.19118028534370946
0.16868848706797895
0.1555962462806134
0.15492484931715875
0.15391775387197681
0.16298161287861446
0.2247501335164416
0.3226062409399557
0.3919279774166476
0.38924238956282897
0.32059205004959185
0.19504081788357364
0.03138780804150454
-0.1270618753337911
-0.24623483634699012
-0.31438162813763637
-0.3252918287937743
-0.29826810101472495
-0.26939803158617537
-0.25261310749980925
-0.24657053482871744
-0.24858472571908144
-0.2881971465629053
-0.33183794918745707
-0.3130388342107271
-0.24119935912108034
-0.15727473868925002
-0.05488670176241703
0.057236591134508276
0.14351110093842984
0.19319447623407338
0.2099794003204395
0.19420157167925536
0.16835278858625158
0.16331731136034178
0.17154192416266117
0.17305256733043411
0.18429846646829937
0.24959182116426334
0.34493018997482255
0.3910887312123293
0.3623865110246433
0.29709315632867933
0.19386587319752804
0.04531929503318838
-0.11363393606469825
-0.24119935912108034
-0.3090104524299992
-0.31773861295490957
-0.3043106736858167
-0.2834973678187228
-0.2593270771343557
-0.2391851682307164
-0.23532463569085216
-0.27309071488517583
-0.3237811856260014
-0.3187457084000916
-0.24321355001144426
-0.15324635690852215
-0.06428625925078202
0.03810177767605096
0.12739757381551842
0.18715190356298161
0.21467917906462194
0.21736476691844053
0.21602197299153122
0.19755855649652856
0.16499580376897838
0.14888227664606699
0.16633859769588769
0.24489204242008086
0.35298695353627835
0.4023346303501945
0.3785000381475548
0.3167315175097276
0.21467917906462194
0.06831464103150987
-0.09147783627069504
-0.22240024414435033
-0.3022964827954528
-0.3217669947356374
-0.30498207064927135
-0.2809796292057679
-0.2566414892805371
-0.24119935912108034
-0.24321355001144426
-0.27006942854962995
-0.3053177691309987
-0.29826810101472495
-0.23717097734035245
-0.15022507057297627
-0.05119401846341649
0.04515144579232471
0.11631952391851681
0.17943083848325322
0.21199359121080338
0.21467917906462194
0.21535057602807656
0.19218738078889144
0.15928892957961394
0.147875181200885
0.15828183413443195
0.21971465629053175
0.3247882810711833
0.39125658045319295
0.3816891737239643
0.32411688410772865
0.22240024414435033
0.07838559548332952
-0.07704280155642022
-0.21098649576562137
-0.29860379949645227
-0.3291523613336385
-0.31236743724727245
-0.277454795147631
-0.24791332875562672
-0.22575722896162354
-0.21652552071412223
-0.25999847409781035
-0.33284504463263903
-0.3496299687190051
-0.2898756389715419
-0.1837949187457084
-0.05992217898832684
0.04750133516441596
0.12639047837033646
0.18614480811779963
0.22206454566262301
0.23012130922407872
0.22005035477225907
0.19621576256961928
0.17271686884870677
0.16365300984206912
0.17372396429388878
0.22710002288853282
0.3217669947356374
0.3875638971541924
0.3828641184100099
0.3251239795529106
0.22273594262607763
0.08241397726405737
-0.06160067139696345
-0.18413061722743573
-0.27409781033035785
-0.31908140688181885
-0.33015945677882047
-0.31438162813763637
-0.28148317692835884
-0.2438849469748989
-0.2203860532539864
-0.2640268558785382
-0.33485923552300295
-0.3425803006027313
-0.26839093614099335
-0.16600289921416037
-0.059250782024872196
0.0387731746395056
0.10926985580224306
0.16835278858625158
0.2046082246128023
0.2106507972838941
0.2025940337224384
0.18110933089188982
0.16029602502479592
0.15324635690852215
0.15794613565270463
0.2093080033569848
0.3147173266193637
0.4103913939116503
0.42549782558937965
0.3499656672007324
0.22172884718089572
0.0767071030746929
-0.06596475165941862
-0.17943083848325322
-0.25009536888685435
-0.29826810101472495
-0.31606012054627297
-0.3009536888685435
-0.27006942854962995
-0.2331425955596246
-0.20494392309452963
-0.23381399252307927
-0.3103532463569085
-0.33284504463263903
-0.2687266346227206
-0.17607385366598
-0.08375677119096665
0.01527428091859312
0.1032272831311513
0.1696955825131609
0.20192263675898375
0.20628671702143891
0.2017547875181201
0.19554436560616464
0.18564126039520865
0.16163881895170518
0.13411154345006485
0.16818493934538795
0.27695124742504
0.3838712138551919
0.4127412832837415
0.3445944914930953
0.22793926909285112
0.08979934386205844
-0.05790798809796292
-0.18261997405966277
-0.2626840619516289
-0.3076676585030899
-0.3187457084000916
-0.29692530708781567
-0.26469825284199283
-0.2391851682307164
-0.22072175173571373
-0.23985656519417106
-0.29726100556954294
-0.31773861295490957
-0.26604104676890206
-0.17640955214770732
-0.0767071030746929
0.02400244144350347
0.10759136339360646
0.1560997940032044
0.16768139162279697
0.17372396429388878
0.18110933089188982
0.18345922026398107
0.17640955214770732
0.15022507057297627
0.1304188601510643
0.17405966277561608
0.28651865415426864
0.3939421683070115
0.4214694438086518
0.3568474860761425
0.24824902723735406
0.11464103150988021
-0.0323949034866865
-0.16130312046997786
-0.24657053482871744
-0.28551155870908673
-0.2989394979781796
-0.286854352635996
-0.2579842832074464
-0.2307927061875334
-0.21098649576562137
-0.22189669642175933
-0.28282597085526817
-0.3304951552605478
-0.30565346761272594
-0.21518272678721292
-0.09349202716105898
0.027695124742504008
0.12135500114442664
0.16029602502479592
0.16231021591515984
0.15291065842679483
0.14552529182879376
0.1414969100480659
0.13411154345006485
0.11934081025406272
0.10725566491187914
0.14552529182879376
0.2472419317921721
0.351644159609369
0.3889066910811017
0.3445944914930953
0.24690623331044484
0.12202639810788128
-0.019638361181048294
-0.15190356298161287
-0.24237430380712593
-0.2838330663004501
-0.29457541771572443
-0.2959182116426337
-0.28551155870908673
-0.2516060120546273
-0.21434348058289462
-0.20779736018921185
-0.2569771877622644
-0.3167315175097276
-0.30867475394827193
-0.223071641107805
-0.1062485694666972
0.009903105210955977
0.10305943389028763
0.16348516060120546
0.19050888838025481
0.2025940337224384
0.21367208361943996
0.21803616388189515
0.20796520943007551
0.18513771267261767
0.16231021591515984
0.1874876020447089
0.28920424200808725
0.39931334401464863
0.43456168459601735
0.3875638971541924
0.2959182116426337
0.16096742198825056
-0.007217517357137408
-0.15190356298161287
-0.23884946974898907
-0.2787975890745403
-0.29088273441672385
-0.29776455329213397
-0.2881971465629053
-0.2546272983901732
-0.223071641107805
-0.2291142137788968
-0.2845044632639048
-0.33385214007782105
-0.31908140688181885
-0.23599603265430688
-0.1257190814068818
-0.011581597619592583
0.08694590676737621
0.1475394827191577
0.17674525062943464
0.19453727016098266
0.20964370183871214
0.21300068665598534
0.20427252613107502
0.19453727016098266
0.19034103913939115
0.1965514610513466
0.25731288624399173
0.3550011444266422
0.41139848935683215
0.38588540474555577
0.29491111619745175
0.14888227664606699
-0.014267185473411156
-0.14821087968261232
-0.2339818417639429
-0.2720836194399938
-0.27946898603799497
-0.2902113374532692
-0.29558251316090633
-0.27275501640344857
-0.23112840466926068
-0.21434348058289462
-0.2640268558785382
-0.33351644159609367
-0.33586633096818486
-0.2472419317921721
-0.1270618753337911
-0.01292439154650187
0.08577096208133059
0.1569390402075227
0.18983749141680015
0.18916609445334553
0.17473105973907072
0.175066758220798
0.18715190356298161
0.18815899900816355
0.17372396429388878
0.16298161287861446
0.22206454566262301
0.32948805981536583
0.39797055008773935
0.38823529411764707
0.30934615091172657
0.17640955214770732
0.014602883955138474
-0.1326009002822919
-0.2297856107423514
-0.2754406042572671
-0.2838330663004501
-0.2834973678187228
-0.278461890592813
-0.25261310749980925
-0.22172884718089572
-0.21719691767757685
-0.2626840619516289
-0.3157244220645456
-0.31102464332036317
-0.25395590142671853
-0.1733882658121614
-0.060593575951781484
0.05522240024414436
0.14485389486533912
0.20192263675898375
0.2133363851377127
0.1999084458686198
0.1918516823071641
0.18345922026398107
0.17204547188525215
0.1569390402075227
0.15140001525902191
0.21367208361943996
0.3261310749980926
0.40535591668574045
0.4023346303501945
0.33334859235523
0.1999084458686198
0.020309758144502935
-0.13243305104142825
-0.23045700770580602
-0.2821545738918135
-0.29625391012436103
-0.29088273441672385
-0.2729228656443122
-0.258655680170901
-0.2519417105363546
-0.24287785152971691
-0.27476920729381243
-0.3210955977721828
-0.3147173266193637
-0.26066987106126494
-0.17607385366598
-0.05656519417105363
0.06025787747005417
0.14317540245670252
0.18950179293507285
0.19722285801480124
0.1901731898985275
0.18916609445334553
0.19319447623407338
0.1952086671244373
0.18278782330052643
0.16835278858625158
0.21770046540016783
0.3355306324864576
0.4207980468451973
0.4110627908751049
0.3321736476691844
0.21132219424734877
0.05421530479896238
-0.11329823758297093
-0.24455634393835354
-0.3048142214084077
-0.3098496986343175
-0.29323262378881515
-0.2754406042572671
-0.26973373006790263
-0.2620126649881742
-0.24757763027389945
-0.269062333104448
-0.3138780804150454
-0.3157244220645456
-0.2613412680247196
-0.17489890897993438
-0.06663614862287326
0.04750133516441596
0.13746852826733807
0.18782330052643625
0.1999084458686198
0.19050888838025481
0.18631265735866331
0.18648050659952697
0.18446631570916305
0.17305256733043411
0.17137407492179751
0.22777141985198748
0.31404592965590905
0.37279316395819023
0.37447165636682683
0.32143129625391015
0.21803616388189515
0.0725108720531014
-0.09147783627069504
-0.22710002288853282
-0.2996108949416343
-0.31706721599145493
-0.3068284122987716
-0.2821545738918135
-0.2583199816891737
-0.23784237430380706
-0.22206454566262301
-0.24824902723735406
-0.3002822919050888
-0.3096818493934539
-0.26469825284199283
-0.18916609445334553
-0.08577096208133059
0.035751888303959714
0.13914702067597465
0.20427252613107502
0.2247501335164416
0.21568627450980396
0.19588006408789194
0.17439536125734342
0.16499580376897838
0.15928892957961394
0.16163881895170518
0.2166933699549859
0.3046463721675441
0.37094682230868997
0.379842832074464
0.3387197680628672
0.24153505760280766
0.08845654993514916
-0.0800640878919661
-0.21367208361943996
-0.2838330663004501
-0.3009536888685435
-0.2915541313801785
-0.27476920729381243
-0.2613412680247196
-0.2532845044632639
-0.23196765087357898
-0.24153505760280766
-0.29356832227054247
-0.3130388342107271
-0.26469825284199283
-0.17674525062943464
-0.07771419851987486
0.020981155107957578
0.11161974517433432
0.17573815518425268
0.2106507972838941
0.22005035477225907
0.20360112916762035
0.17842374303807124
0.16768139162279697
0.1710383764400702
0.175066758220798
0.2140077821011673
0.3026321812771801
0.38219272144655525
0.4035095750362402
0.3623865110246433
0.2630197604333562
0.11262684061951626
-0.054551003280689715
-0.19554436560616464
-0.2796368352788586
-0.3090104524299992
-0.3043106736858167
-0.2834973678187228
-0.25999847409781035
-0.23801022354467077
-0.23179980163271532
-0.26889448386358433
-0.32646677347981995
-0.3380483710994125
-0.28282597085526817
-0.19084458686198216
-0.10154879072251469
-0.004196231021591517
0.09382772564278628
0.16549935149156939
0.203265430685893
0.2166933699549859
0.21132219424734877
0.2012512397955291
0.20393682764934767
0.20964370183871214
0.20527962157625693
0.2375066758220798
0.32545967803463793
0.39897764553292137
0.416433966582742
0.37312886243991755
0.27342641336690315
0.13142595559624626
-0.027359426260776684
-0.16298161287861446
-0.2566414892805371
-0.3130388342107271
-0.32243839169909205
-0.29491111619745175
-0.25999847409781035
-0.23179980163271532
-0.22609292744335088
-0.25731288624399173
-0.31908140688181885
-0.34862287327382313
-0.30565346761272594
-0.21367208361943996
-0.11161974517433432
-0.0050354772259098195
0.09449912260624094
0.16432440680552376
0.2051117723353933
0.21535057602807656
0.1982299534599832
0.16700999465934235
0.14955367360952163
0.1508964675364309
0.16063172350652322
0.20729381246662087
0.2989394979781796
0.3823605706874189
0.39327077134355687
0.33267719539177537
0.23347829404135198
0.09382772564278628
-0.061936369878690785
-0.1901731898985275
-0.286854352635996
-0.3372091248950942
-0.3355306324864576
-0.3090104524299992
-0.2754406042572671
-0.24254215304798965
-0.22777141985198748
-0.24757763027389945
-0.3022964827954528
-0.33351644159609367
-0.2912184328984512
-0.2029297322041657
-0.11363393606469825
-0.016784924086366067
0.08577096208133059
0.16533150225070573
0.20964370183871214
0.2187075608453498
0.20729381246662087
0.19688715953307392
0.18110933089188982
0.1535820553902495
0.13545433737697413
0.17137407492179751
0.2761120012207217
0.3778286411841001
0.39327077134355687
0.33150225070572975
0.24757763027389945
0.13276874952315554
-0.011581597619592583
-0.14518959334706644
-0.24187075608453498
-0.29826810101472495
-0.3083390554665446
-0.28719005111772333
-0.25395590142671853
-0.2264286259250782
-0.22206454566262301
-0.2541237506675822
-0.3076676585030899
-0.33620202944991223
-0.3002822919050888
-0.2178683146410315
-0.10708781567101548
0.01560997940032044
0.1079270618753338
0.15828183413443195
0.18580910963607233
0.20057984283207447
0.20427252613107502
0.19688715953307392
0.17305256733043411
0.15022507057297627
0.14418249790188448
0.17405966277561608
0.26637674525062943
0.37413595788509957
0.4093842984664683
0.361043717097734
0.2710765239948119
0.14351110093842984
-0.012252994583047227
-0.1569390402075227
-0.26570534828717474
-0.33015945677882047
-0.33519493400473027
-0.30128938735027083
-0.26738384069581134
-0.23784237430380706
-0.20628671702143891
-0.20880445563439382
-0.277454795147631
-0.34526588845654993
-0.32646677347981995
-0.23448538948653389
-0.12034790569924468
-0.003860532539864194
0.07737850003814756
0.12672617685206378
0.17036697947661553
0.19621576256961928
0.20393682764934767
0.2046082246128023
0.18715190356298161
0.16063172350652322
0.15056076905470359
0.17238117036697947
0.25496299687190055
0.36473640039673455
0.41458762493324175
0.37514305333028153
0.2838330663004501
0.16096742198825056
0.013931486991683832
-0.13008316166933698
-0.23347829404135198
-0.28148317692835884
-0.29491111619745175
-0.2912184328984512
-0.2626840619516289
-0.2297856107423514
-0.20695811398489355
-0.2059510185397116
-0.2729228656443122
-0.3445944914930953
-0.3237811856260014
-0.22676432440680552
-0.12135500114442664
-0.014267185473411156
0.0797283894102388
0.14183260852979326
0.18178072785534446
0.20057984283207447
0.2059510185397116
0.203265430685893
0.18312352178225372
0.15660334172579538
0.15022507057297627
0.17238117036697947
0.2519417105363546
0.36305790798809795
0.4160982681010147
0.38722819867246505
0.2996108949416343
0.16600289921416037
0.0213168535896849
-0.11229114213778896
-0.21988250553139543
-0.27946898603799497
-0.3130388342107271
-0.3251239795529106
-0.30363927672236213
-0.26604104676890206
-0.22508583199816892
-0.21132219424734877
-0.26469825284199283
-0.33267719539177537
-0.3311665522240024
-0.2576485847257191
-0.15056076905470359
-0.029709315632867935
0.07536430914778362
0.14082551308461125
0.18950179293507285
0.21736476691844053
0.21803616388189515
0.2133363851377127
0.2059510185397116
0.18580910963607233
0.1525749599450675
0.13746852826733807
0.20846875715266647
0.32948805981536583
0.40468451972228575
0.38924238956282897
0.29256122682536045
0.15811398489356832
0.01527428091859312
-0.11833371480888075
-0.223071641107805
-0.28148317692835884
-0.31001754787518115
-0.31236743724727245
-0.28651865415426864
-0.2505989166094453
-0.21568627450980396
-0.1992370489051652
-0.24740978103303574
-0.3157244220645456
-0.315053025101091
-0.2391851682307164
-0.1398184176394293
-0.032730601968413826
0.07435721370260165
0.15593194476234074
0.19688715953307392
0.20091554131380177
0.19688715953307392
0.2025940337224384
0.2029297322041657
0.18883039597161821
0.1542534523537041
0.1414969100480659
0.21602197299153122
0.3388876173037308
0.4100556954299229
0.39327077134355687
0.305149919890135
0.175066758220798
0.0260166323338674
-0.11699092088197145
-0.22005035477225907
-0.27946898603799497
-0.3076676585030899
-0.3210955977721828
-0.3076676585030899
-0.27090867475394825
-0.23700312809948879
-0.22240024414435033
-0.2588235294117647
-0.3184100099183642
-0.33452353704127563
-0.2845044632639048
-0.1837949187457084
-0.05790798809796292
0.07167162584878309
0.16902418554970625
0.19755855649652856
0.1884946974898909
0.18983749141680015
0.1982299534599832
0.1952086671244373
0.1837949187457084
0.15626764324406803
0.14351110093842984
0.20796520943007551
0.32545967803463793
0.4056916151674677
0.4006561379415579
0.3217669947356374
0.19789425497825588
0.058915083543144876
-0.08577096208133059
-0.20729381246662087
-0.27426565957122145
-0.2959182116426337
-0.29423971923399705
-0.2950789654383154
-0.29356832227054247
-0.2648661020828565
-0.22710002288853282
-0.23784237430380706
-0.2928969253070878
-0.33015945677882047
-0.29054703593499653
-0.18614480811779963
-0.059250782024872196
0.05656519417105363
0.13411154345006485
0.18043793392843518
0.19974059662775617
0.19118028534370946
0.17439536125734342
0.16432440680552376
0.1542534523537041
0.13612573434042877
0.11934081025406272
0.17372396429388878
0.295246814679179
0.3919279774166476
0.40199893186846725
0.33385214007782105
0.2183718623636225
0.05790798809796292
-0.11564812695506219
-0.2331425955596246
-0.2876935988403143
-0.30296787975890743
-0.2950789654383154
-0.2881971465629053
-0.2767833981841764
-0.2472419317921721
-0.21434348058289462
-0.240863660639353
-0.3096818493934539
-0.3375448233768215
-0.28517586022735936
-0.1777523460746166
-0.057572289616235596
0.05958648050659952
0.1555962462806134
0.19856565194171052
0.1965514610513466
0.19285877775234606
0.19688715953307392
0.203265430685893
0.2002441443503471
0.1901731898985275
0.18110933089188982
0.2106507972838941
0.29457541771572443
0.3838712138551919
0.4073701075761043
0.3633936064698253
0.2620126649881742
0.10188448920424201
-0.07133592736705577
-0.19974059662775617
-0.26671244373235675
-0.2861829556725414
-0.2826581216144045
-0.27946898603799497
-0.27006942854962995
-0.2358281834134432
-0.2002441443503471
-0.21803616388189515
-0.2798046845197223
-0.3130388342107271
-0.2809796292057679
-0.19420157167925536
-0.08140688181887541
0.04145876249332417
0.14082551308461125
0.19453727016098266
0.21199359121080338
0.20225833524071107
0.1837949187457084
0.18245212481879908
0.18446631570916305
0.18110933089188982
0.1790951400015259
0.19890135042343787
0.27443350881208517
0.36809338521400775
0.40401312275883117
0.36037232013427933
0.2576485847257191
0.10054169527733271
-0.07200732433051041
-0.2029297322041657
-0.27141222247653923
-0.29558251316090633
-0.2915541313801785
-0.2796368352788586
-0.27695124742504
-0.25261310749980925
-0.21602197299153122
-0.22710002288853282
-0.28567940794995034
-0.31538872358281833
-0.27309071488517583
-0.19420157167925536
-0.10121309224078735
0.012588693064774548
0.11934081025406272
0.18513771267261767
0.21300068665598534
0.19856565194171052
0.17137407492179751
0.16130312046997786
0.16868848706797895
0.17305256733043411
0.16902418554970625
0.19118028534370946
0.26570534828717474
0.3550011444266422
0.39377431906614785
0.35298695353627835
0.2505989166094453
0.08979934386205844
-0.08274967574578469
-0.2015869382772564
-0.26604104676890206
-0.2915541313801785
-0.2838330663004501
-0.2626840619516289
-0.24321355001144426
-0.23985656519417106
-0.24824902723735406
-0.26536964980544747
-0.30330357824063475
-0.3184100099183642
-0.2754406042572671
-0.20729381246662087
-0.12370489051651787
-0.009903105210955977
0.10255588616769665
0.1733882658121614
0.20427252613107502
0.20628671702143891
0.19285877775234606
0.18580910963607233
0.18513771267261767
0.18144502937361714
0.17573815518425268
0.19420157167925536
0.26771953917753877
0.3623865110246433
0.398641947051194
0.3602044708934157
0.2710765239948119
0.1381399252307927
-0.019974059662775615
-0.16801709010452429
-0.2729228656443122
-0.31371023117418173
-0.31337453269245436
-0.28953994048981463
-0.25999847409781035
-0.24824902723735406
-0.2438849469748989
-0.25261310749980925
-0.2975967040512703
-0.32780956740672923
-0.2848401617456321
-0.1992370489051652
-0.10826276035706112
-0.0015106431677729458
0.10457007705806058
0.18043793392843518
0.21736476691844053
0.21568627450980396
0.19285877775234606
0.18245212481879908
0.18245212481879908
0.1777523460746166
0.16633859769588769
0.18110933089188982
0.2589913786526284
0.3503013656824597
0.380346379797055
0.35197985809109633
0.2798046845197223
0.1512321660181582
-0.005874723430228122
-0.16197451743343252
-0.2756084534981307
-0.31253528648813605
-0.3026321812771801
-0.28114747844663157
-0.25261310749980925
-0.2358281834134432
-0.2291142137788968
-0.23112840466926068
-0.2757763027389944
-0.31371023117418173
-0.29625391012436103
-0.23549248493171587
-0.14283970397497517
-0.014938582436865796
0.10490577553978789
0.18345922026398107
0.2203860532539864
0.22072175173571373
0.2017547875181201
0.17708094911116198
0.15022507057297627
0.139482719157702
0.14183260852979326
0.1700312809948882
0.2581521324483101
0.34862287327382313
0.3838712138551919
0.35953307392996103
0.2831616693369955
0.15996032654306858
0.014938582436865796
-0.1304188601510643
-0.24321355001144426
-0.29423971923399705
-0.29457541771572443
-0.2729228656443122
-0.25227740901808193
-0.24119935912108034
-0.23179980163271532
-0.22609292744335088
-0.2620126649881742
-0.30783550774395363
-0.29692530708781567
-0.22844281681544215
-0.13713282978561073
-0.03944457160296025
0.04716563668268864
0.12068360418097199
0.17708094911116198
0.2012512397955291
0.19588006408789194
0.1710383764400702
0.15022507057297627
0.1525749599450675
0.15223926146334021
0.16398870832379644
0.240863660639353
0.33150225070572975
0.37145037003128095
0.3543297474631876
0.295246814679179
0.18312352178225372
0.032730601968413826
-0.12437628747997252
-0.24187075608453498
-0.2912184328984512
-0.2989394979781796
-0.28836499580376895
-0.26637674525062943
-0.23968871595330735
-0.21434348058289462
-0.21971465629053175
-0.2787975890745403
-0.3268024719615472
-0.3043106736858167
-0.2297856107423514
-0.1364614328221561
-0.04682993820096131
0.048508430609597926
0.14216830701152056
0.19856565194171052
0.21770046540016783
0.22105745021744103
0.2059510185397116
0.18245212481879908
0.17170977340352483
0.16499580376897838
0.175066758220798
0.24690623331044484
0.34946211947814143
0.40099183642328523
0.3835355153734646
0.31404592965590905
0.1918516823071641
0.03860532539864195
-0.10389868009460593
-0.21283283741512166
-0.28567940794995034
-0.3217669947356374
-0.3184100099183642
-0.29054703593499653
-0.2579842832074464
-0.2331425955596246
-0.24589913786526282
-0.29994659342336155
-0.3419089036392767
-0.3202563515678644
-0.24052796215762567
-0.14518959334706644
-0.051529716945143814
0.043472953383688104
0.13008316166933698
0.1918516823071641
0.22575722896162354
0.2348210879682612
0.22240024414435033
0.19957274738689249
0.19168383306630046
0.19118028534370946
0.19856565194171052
0.2613412680247196
0.36675059128709847
0.43892576485847257
0.4221408407721065
0.32277409018081943
0.1952086671244373
0.05354390783550774
-0.0800640878919661
-0.18597695887693597
-0.27141222247653923
-0.3180743114366369
-0.3113603418020905
-0.2821545738918135
-0.2546272983901732
-0.231464103150988
-0.22777141985198748
-0.27779049362935837
-0.3388876173037308
-0.33015945677882047
-0.24992751964599072
-0.14653238727397572
-0.05119401846341649
0.03776607919432364
0.11598382543678949
0.1700312809948882
0.19588006408789194
0.1999084458686198
0.19252307927061874
0.18043793392843518
0.15660334172579538
0.12672617685206378
0.12471198596169988
0.19420157167925536
0.3080033569848173
0.38454261081864644
0.3637293049515526
0.278461890592813
0.17607385366598
0.049515526054779886
-0.09147783627069504
-0.2056153200579843
-0.2787975890745403
-0.31706721599145493
-0.31606012054627297
-0.28853284504463267
-0.2589913786526284
-0.23717097734035245
-0.23045700770580602
-0.2754406042572671
-0.3372091248950942
-0.3409018081940947
-0.27426565957122145
-0.17204547188525215
-0.05656519417105363
0.05790798809796292
0.13746852826733807
0.17170977340352483
0.19302662699320974
0.2133363851377127
0.21736476691844053
0.20779736018921185
0.18110933089188982
0.15962462806134128
0.16365300984206912
0.22273594262607763
0.32411688410772865
0.39797055008773935
0.3925993743801023
0.3237811856260014
0.2183718623636225
0.08224612802319371
-0.061936369878690785
-0.18211642633707179
-0.26939803158617537
-0.32042420080872813
-0.32042420080872813
-0.29491111619745175
-0.26604104676890206
-0.2391851682307164
-0.21451132982375828
-0.23112840466926068
-0.3026321812771801
-0.34795147631036855
-0.30380712596322573
-0.20209048599984739
-0.08207827878233005
0.03407339589532311
0.10994125276569772
0.1475394827191577
0.18110933089188982
0.20192263675898375
0.19755855649652856
0.18245212481879908
0.16566720073243305
0.15022507057297627
0.15492484931715875
0.21199359121080338
0.3105210955977722
0.3862211032272831
0.38991378652628367
0.32579537651636525
0.23012130922407872
0.10524147402151522
-0.03910887312123293
-0.17405966277561608
-0.2620126649881742
-0.2898756389715419
-0.29491111619745175
-0.2989394979781796
-0.2834973678187228
-0.24589913786526282
-0.21434348058289462
-0.23012130922407872
-0.3096818493934539
-0.3556725413900969
-0.29994659342336155
-0.19487296864270998
-0.07872129396505684
0.043472953383688104
0.13746852826733807
0.18312352178225372
0.2025940337224384
0.2099794003204395
0.2099794003204395
0.20527962157625693
0.18295567254139009
0.1525749599450675
0.139482719157702
0.18916609445334553
0.2992751964599069
0.3946135652704661
0.41139848935683215
0.3508049134050507
0.23465323872739755
0.07536430914778362
-0.08358892195010299
-0.2076295109483482
-0.28030823224231327
-0.2975967040512703
-0.2996108949416343
-0.29457541771572443
-0.27510490577553975
-0.24136720836194397
-0.21467917906462194
-0.22777141985198748
-0.29222552834363313
-0.33183794918745707
-0.28886854352635993
-0.19235523002975508
-0.07939269092851148
0.03608758678568704
0.11715877012283514
0.15156786449988555
0.175066758220798
0.1999084458686198
0.20796520943007551
0.2017547875181201
0.19319447623407338
0.17976653696498052
0.16063172350652322
0.17708094911116198
0.27443350881208517
0.38722819867246505
0.42616922255283435
0.37413595788509957
0.25362020294499127
0.10859845883878842
-0.03508049134050507
-0.16214236667429618
-0.2529488059815366
-0.29491111619745175
-0.31169604028381775
-0.31169604028381775
-0.2861829556725414
-0.2542915999084459
-0.23247119859617
-0.24187075608453498
-0.30363927672236213
-0.35063706416418705
-0.3111924925612268
-0.21199359121080338
-0.09819180590524147
0.013931486991683832
0.10725566491187914
0.1696955825131609
0.18899824521248187
0.18312352178225372
0.18245212481879908
0.18983749141680015
0.19453727016098266
0.1915159838254368
0.16700999465934235
0.17170977340352483
0.2541237506675822
0.3590295262073701
0.40502021820401307
0.37514305333028153
0.2757763027389944
0.1287403677424277
-0.022323949034866862
-0.147875181200885
-0.23515678644998858
-0.2834973678187228
-0.3080033569848173
-0.3096818493934539
-0.28014038300144956
-0.2358281834134432
-0.19856565194171052
-0.2012512397955291
-0.26066987106126494
-0.315053025101091
-0.31589227130540926
-0.2620126649881742
-0.15794613565270463
-0.02366674296177615
0.0955062180514229
0.16835278858625158
0.18010223544670784
0.16566720073243305
0.17036697947661553
0.18513771267261767
0.1901731898985275
0.17808804455634394
0.1576104371709773
0.16868848706797895
0.2583199816891737
0.37413595788509957
0.4318760967421988
0.40132753490501255
0.29625391012436103
0.1445181963836118
-0.011581597619592583
-0.14435034714274816
-0.23347829404135198
-0.27309071488517583
-0.2841687647821775
-0.2841687647821775
-0.27946898603799497
-0.2707408255130846
-0.24187075608453498
-0.22944991226062406
-0.27409781033035785
-0.32646677347981995
-0.32394903486686505
-0.2532845044632639
-0.1398184176394293
-0.010910200656137941
0.09953459983215075
0.17137407492179751
0.19722285801480124
0.18966964217593651
0.18648050659952697
0.19588006408789194
0.1977264057373922
0.18513771267261767
0.15727473868925002
0.15828183413443195
0.2438849469748989
0.3583581292439155
0.4120698863202869
0.3862211032272831
0.3039749752040894
0.16868848706797895
-0.006881818875410085
-0.16331731136034178
-0.2569771877622644
-0.29423971923399705
-0.29625391012436103
-0.2841687647821775
-0.27946898603799497
-0.2737621118486305
-0.2532845044632639
-0.24455634393835354
-0.2848401617456321
-0.32394903486686505
-0.305149919890135
-0.2331425955596246
-0.13662928206301975
-0.025345235370412753
0.08543526359960325
0.16331731136034178
0.2012512397955291
0.2012512397955291
0.194369420920119
0.19319447623407338
0.19252307927061874
0.18513771267261767
0.1700312809948882
0.17238117036697947
0.23347829404135198
0.3268024719615472
0.3946135652704661
0.3890745403219653
0.30867475394827193
0.17439536125734342
-0.0011749446860456242
-0.16214236667429618
-0.2566414892805371
-0.29423971923399705
-0.2989394979781796
-0.2848401617456321
-0.27342641336690315
-0.26570534828717474
-0.24455634393835354
-0.23012130922407872
-0.2643625543602655
-0.3103532463569085
-0.30498207064927135
-0.24455634393835354
-0.14283970397497517
-0.020477607385366595
0.09382772564278628
0.1733882658121614
0.2106507972838941
0.22139314869916837
0.2059510185397116
0.17473105973907072
0.1586175326161593
0.1641565575646601
0.16499580376897838
0.17036697947661553
0.22710002288853282
0.3268024719615472
0.39662775616083007
0.38924238956282897
0.3271381704432746
0.21736476691844053
0.056061646448462656
-0.10826276035706112
-0.22072175173571373
-0.27006942854962995
-0.2861829556725414
-0.29356832227054247
-0.29994659342336155
-0.29457541771572443
-0.26234836346990154
-0.23381399252307927
-0.26503395132372015
-0.31773861295490957
-0.3179064621957733
-0.2532845044632639
-0.15996032654306858
-0.051865415426871134
0.062272068360418105
0.14988937209124895
0.20091554131380177
0.21467917906462194
0.18916609445334553
0.1576104371709773
0.15492484931715875
0.16902418554970625
0.17372396429388878
0.1837949187457084
0.2348210879682612
0.3179064621957733
0.37715724422064545
0.3758144502937361
0.3247882810711833
0.21702906843671319
0.0481727321278706
-0.1304188601510643
-0.2505989166094453
-0.295246814679179
-0.2915541313801785
-0.27476920729381243
-0.25597009231708245
-0.2375066758220798
-0.22441443503471423
-0.22877851529716942
-0.27409781033035785
-0.3271381704432746
-0.3157244220645456
-0.2358281834134432
-0.15928892957961394
-0.08342107270923933
0.014602883955138474
0.11229114213778896
0.17842374303807124
0.2025940337224384
0.18782330052643625
0.17170977340352483
0.17305256733043411
0.17573815518425268
0.17708094911116198
0.18043793392843518
0.21702906843671319
0.30330357824063475
0.38554970626382845
0.3972991531242847
0.33989471274891275
0.23649958037689783
0.09047074082551307
-0.07133592736705577
-0.2076295109483482
-0.29625391012436103
-0.3271381704432746
-0.3130388342107271
-0.27946898603799497
-0.24858472571908144
-0.23515678644998858
-0.23448538948653389
-0.2626840619516289
-0.3076676585030899
-0.3083390554665446
-0.24657053482871744
-0.16734569314106965
-0.08241397726405737
0.023834592202639806
0.1284046692607004
0.1992370489051652
0.2247501335164416
0.2133363851377127
0.18983749141680015
0.18513771267261767
0.18211642633707179
0.17036697947661553
0.16902418554970625
0.21602197299153122
0.3172350652323186
0.3944457160296025
0.3868925001907378
0.33015945677882047
0.23817807278553446
0.09584191653315023
-0.06092927443350881
-0.2029297322041657
-0.29491111619745175
-0.3237811856260014
-0.31337453269245436
-0.2915541313801785
-0.27006942854962995
-0.25597009231708245
-0.24489204242008086
-0.26066987106126494
-0.30498207064927135
-0.315053025101091
-0.26066987106126494
-0.18480201419089035
-0.09953459983215075
0.008560311284046692
0.10389868009460593
0.16600289921416037
0.20091554131380177
0.2099794003204395
0.2076295109483482
0.1915159838254368
0.16079957274738685
0.14821087968261232
0.15928892957961394
0.21199359121080338
0.31589227130540926
0.3868925001907378
0.3837033646143282
0.33150225070572975
0.240863660639353
0.10524147402151522
-0.04716563668268864
-0.17842374303807124
-0.26100556954299226
-0.2923933775844968
-0.2910505836575875
-0.2754406042572671
-0.2552986953536278
-0.24187075608453498
-0.2333104448004883
-0.24858472571908144
-0.30045014114595253
-0.3184100099183642
-0.2707408255130846
-0.18345922026398107
-0.08157473105973906
0.019974059662775615
0.09852750438696878
0.16029602502479592
0.20209048599984739
0.2150148775463493
0.2093080033569848
0.1837949187457084
0.15660334172579538
0.14821087968261232
0.15593194476234074
0.2059510185397116
0.30867475394827193
0.39293507286182955
0.40401312275883117
0.35298695353627835
0.2532845044632639
0.1096055542839704
-0.04750133516441596
-0.17875944151979858
-0.26671244373235675
-0.30296787975890743
-0.3039749752040894
-0.2824902723735408
-0.25362020294499127
-0.22407873655298696
-0.21098649576562137
-0.24791332875562672
-0.32277409018081943
-0.35399404898146025
-0.30296787975890743
-0.20427252613107502
-0.09735255970092317
-0.0055390249485008005
0.06898603799496453
0.13411154345006485
0.17943083848325322
0.19957274738689249
0.2059510185397116
0.1918516823071641
0.17036697947661553
0.1601281757839322
0.1594567788204776
0.19755855649652856
0.2992751964599069
0.3865568017090104
0.39931334401464863
0.35298695353627835
0.26805523765926603
0.13209735255970093
-0.029709315632867935
-0.16398870832379644
-0.2519417105363546
-0.3002822919050888
-0.3187457084000916
-0.3096818493934539
-0.28551155870908673
-0.2512703135728999
-0.21904325932707713
-0.24069581139848936
-0.3090104524299992
-0.34056610971236745
-0.29423971923399705
-0.19688715953307392
-0.0861066605630579
0.01359578850995651
0.09449912260624094
0.16163881895170518
0.20527962157625693
0.21467917906462194
0.20729381246662087
0.18883039597161821
0.16566720073243305
0.15962462806134128
0.16298161287861446
0.19789425497825588
0.29323262378881515
0.3875638971541924
0.4134126802471962
0.35953307392996103
0.25362020294499127
0.11631952391851681
-0.030380712596322572
-0.15542839703974973
-0.23817807278553446
-0.29356832227054247
-0.32445258258945603
-0.3120317387655451
-0.2781261921110857
-0.24925612268253605
-0.22777141985198748
-0.2400244144350347
-0.29692530708781567
-0.33989471274891275
-0.3157244220645456
-0.22743572137026014
-0.11195544365606165
0.001846341649500267
0.09382772564278628
0.16298161287861446
0.20427252613107502
0.21467917906462194
0.2183718623636225
0.22139314869916837
0.21736476691844053
0.1965514610513466
0.16835278858625158
0.18110933089188982
0.26973373006790263
0.3764858472571908
0.4152590218966964
0.36037232013427933
0.2541237506675822
0.12336919203479056
-0.02400244144350347
-0.15593194476234074
-0.24455634393835354
-0.3009536888685435
-0.3293202105745021
-0.3197528038452735
-0.2834973678187228
-0.24539559014267184
-0.21434348058289462
-0.2183718623636225
-0.2834973678187228
-0.3385519188220035
-0.3157244220645456
-0.22844281681544215
-0.11699092088197145
-0.0008392462043183033
0.10054169527733271
0.15962462806134128
0.175066758220798
0.18513771267261767
0.19319447623407338
0.19504081788357364
0.18916609445334553
0.16398870832379644
0.13847562371252
0.1576104371709773
0.24422064545662625
0.3543297474631876
0.4073701075761043
0.37245746547646297
0.2781261921110857
0.14988937209124895
0.0028534370946822307
-0.13310444800488286
-0.2358281834134432
-0.3016250858319981
-0.3291523613336385
-0.3103532463569085
-0.269062333104448
-0.2348210879682612
-0.21232928969253068
-0.2099794003204395
-0.2620126649881742
-0.32394903486686505
-0.32545967803463793
-0.2505989166094453
-0.13847562371252
-0.019974059662775615
0.08375677119096665
0.14082551308461125
0.16633859769588769
0.18144502937361714
0.18983749141680015
0.1901731898985275
0.18648050659952697
0.1700312809948882
0.14317540245670252
0.15156786449988555
0.2375066758220798
0.3566796368352788
0.4221408407721065
0.3919279774166476
0.29323262378881515
0.16700999465934235
0.0213168535896849
-0.12269779507133592
-0.2264286259250782
-0.27225146868085753
-0.27779049362935837
-0.27946898603799497
-0.28014038300144956
-0.258655680170901
-0.21971465629053175
-0.20225833524071107
-0.24858472571908144
-0.32143129625391015
-0.33284504463263903
-0.26335545891508355
-0.15207141222247655
-0.036423285267414354
0.06562905317769131
0.13243305104142825
0.1696955825131609
0.19588006408789194
0.21098649576562137
0.21535057602807656
0.2106507972838941
0.18950179293507285
0.15912108033875028
0.15928892957961394
0.2400244144350347
0.3556725413900969
0.42197299153124274
0.40871290150301365
0.33083085374227506
0.19168383306630046
0.013931486991683832
-0.14317540245670252
-0.24489204242008086
-0.29256122682536045
-0.30363927672236213
-0.3090104524299992
-0.30128938735027083
-0.2707408255130846
-0.2331425955596246
-0.2140077821011673
-0.2514381628137636
-0.31236743724727245
-0.3210955977721828
-0.2566414892805371
-0.1535820553902495
-0.03776607919432364
0.06965743495841917
0.13931486991683834
0.16600289921416037
0.17640955214770732
0.18715190356298161
0.19604791332875562
0.19386587319752804
0.17607385366598
0.16029602502479592
0.15626764324406803
0.20057984283207447
0.30565346761272594
0.3925993743801023
0.3919279774166476
0.3179064621957733
0.17842374303807124
0.003189135576409552
-0.1492179751277943
-0.25395590142671853
-0.3172350652323186
-0.3385519188220035
-0.33519493400473027
-0.3197528038452735
-0.2915541313801785
-0.250263218127718
-0.21904325932707713
-0.2546272983901732
-0.33183794918745707
-0.3576867322804608
-0.29423971923399705
-0.1837949187457084
-0.056900892652780956
0.064789806973373
0.15828183413443195
0.2089723048752575
0.2140077821011673
0.19453727016098266
0.18731975280384525
0.19084458686198216
0.19588006408789194
0.18782330052643625
0.16633859769588769
0.20393682764934767
0.31270313572899977
0.4030060273136492
0.41509117265583273
0.3550011444266422
0.2331425955596246
0.07066453040360113
-0.08644235904478523
-0.20091554131380177
-0.2613412680247196
-0.2771190966659037
-0.27510490577553975
-0.2720836194399938
-0.2546272983901732
-0.22458228427557791
-0.20796520943007551
-0.24321355001144426
-0.3009536888685435
-0.31001754787518115
-0.2569771877622644
-0.17691309987029832
-0.07301441977569237
0.0473334859235523
0.14720378423743039
0.19957274738689249
0.19957274738689249
0.18715190356298161
0.19118028534370946
0.19369802395666438
0.18446631570916305
0.1774166475928893
0.17036697947661553
0.20729381246662087
0.3113603418020905
0.40502021820401307
0.4214694438086518
0.37145037003128095
0.2576485847257191
0.08711375600823987
-0.07620355535210192
-0.19688715953307392
-0.2707408255130846
-0.2989394979781796
-0.2965896086060883
-0.278965438315404
-0.26637674525062943
-0.2576485847257191
-0.23717097734035245
-0.24959182116426334
-0.29423971923399705
-0.3096818493934539
-0.2816510261692225
-0.21132219424734877
-0.08879224841687647
0.048844129091325246
0.1475394827191577
0.20057984283207447
0.21551842526894024
0.203265430685893
0.19453727016098266
0.19856565194171052
0.1965514610513466
0.18345922026398107
0.16365300984206912
0.18950179293507285
0.2845044632639048
0.37917143511100937
0.4033417257953765
0.34828717479209587
0.24153505760280766
0.09584191653315023
-0.07335011825741969
-0.22072175173571373
-0.3009536888685435
-0.32243839169909205
-0.3207598992904554
-0.3016250858319981
-0.28517586022735936
-0.26637674525062943
-0.2341496910048066
-0.24052796215762567
-0.3002822919050888
-0.33183794918745707
-0.2841687647821775
-0.19034103913939115
-0.08761730373083085
0.02400244144350347
0.12806897077897306
0.19453727016098266
0.21199359121080338
0.19621576256961928
0.18782330052643625
0.18916609445334553
0.18513771267261767
0.17976653696498052
0.17674525062943464
0.2076295109483482
0.28853284504463267
0.36305790798809795
0.37950713359273663
0.34392309452964065
0.2616769665064469
0.1240405889982452
-0.048508430609597926
-0.19050888838025481
-0.26805523765926603
-0.28920424200808725
-0.28282597085526817
-0.27443350881208517
-0.26805523765926603
-0.2529488059815366
-0.2299534599832151
-0.23280689707789726
-0.2848401617456321
-0.32646677347981995
-0.3022964827954528
-0.22139314869916837
-0.10490577553978789
0.02366674296177615
0.1287403677424277
0.19453727016098266
0.21971465629053175
0.2187075608453498
0.1999084458686198
0.1696955825131609
0.1569390402075227
0.16130312046997786
0.16633859769588769
0.1965514610513466
0.26973373006790263
0.34946211947814143
0.3875638971541924
0.3657434958419165
0.2798046845197223
0.13881132219424736
-0.03508049134050507
-0.18648050659952697
-0.2754406042572671
-0.30934615091172657
-0.3120317387655451
-0.29776455329213397
-0.2834973678187228
-0.27275501640344857
-0.24858472571908144
-0.24422064545662625
-0.29423971923399705
-0.33183794918745707
-0.29860379949645227
-0.21451132982375828
-0.12034790569924468
-0.022995345998321506
0.07066453040360113
0.14250400549324788
0.19050888838025481
0.21434348058289462
0.19856565194171052
0.17036697947661553
0.16331731136034178
0.17019913023575187
0.17170977340352483
0.19722285801480124
0.27510490577553975
0.36305790798809795
0.408041504539559
0.38588540474555577
0.2928969253070878
0.14351110093842984
-0.021652552071412222
-0.16398870832379644
-0.2452277409018082
-0.2720836194399938
-0.27779049362935837
-0.2754406042572671
-0.2626840619516289
-0.23952086671244371
-0.223071641107805
-0.2480811779964904
-0.3069962615396353
-0.33200579842832073
-0.2903791866941329
-0.21266498817425802
-0.13444724193179217
-0.041123064011596856
0.06361486228732739
0.15056076905470359
0.2012512397955291
0.2183718623636225
0.2064545662623026
0.18950179293507285
0.1837949187457084
0.17640955214770732
0.16549935149156939
0.1874876020447089
0.26570534828717474
0.35332265201800567
0.40132753490501255
0.37682154573891813
0.29306477454795143
0.16633859769588769
0.011245899137865261
-0.1411612115663386
-0.25395590142671853
-0.3147173266193637
-0.3251239795529106
-0.3009536888685435
-0.2707408255130846
-0.24623483634699012
-0.23717097734035245
-0.250263218127718
-0.29692530708781567
-0.3340199893186847
-0.30934615091172657
-0.2297856107423514
-0.12806897077897306
-0.01628137636377508
0.09231708247501334
0.16734569314106965
0.20527962157625693
0.21904325932707713
0.2025940337224384
0.17540245670252536
0.16835278858625158
0.1700312809948882
0.17036697947661553
0.1874876020447089
0.25999847409781035
0.3556725413900969
0.3952849622339208
0.3560082398718242
0.27510490577553975
0.16633859769588769
0.025177386129549097
-0.12034790569924468
-0.2438849469748989
-0.315053025101091
-0.3197528038452735
-0.28953994048981463
-0.26335545891508355
-0.2516060120546273
-0.24136720836194397
-0.24153505760280766
-0.2834973678187228
-0.3284809643701838
-0.3083390554665446
-0.22777141985198748
-0.13713282978561073
-0.04783703364614328
0.052201113908598454
0.13864347295338367
0.19252307927061874
0.2133363851377127
0.21132219424734877
0.19856565194171052
0.18043793392843518
0.1594567788204776
0.15291065842679483
0.17708094911116198
0.25227740901808193
0.351644159609369
0.39897764553292137
0.37615014877546343
0.31186388952468147
0.19974059662775617
0.043472953383688104
-0.11430533302815289
-0.23683527885862518
-0.3009536888685435
-0.31068894483863574
-0.29826810101472495
-0.277454795147631
-0.2472419317921721
-0.223071641107805
-0.22676432440680552
-0.26939803158617537
-0.31773861295490957
-0.3157244220645456
-0.24589913786526282
-0.139482719157702
-0.025009536888685433
0.06630045014114595
0.12303349355306323
0.1710383764400702
0.2059510185397116
0.21367208361943996
0.20628671702143891
0.1777523460746166
0.1461966887922484
0.13679713130388343
0.16029602502479592
0.24287785152971691
0.34694438086518653
0.3972991531242847
0.37447165636682683
0.3073319600213626
0.1982299534599832
0.04716563668268864
-0.11061264972915236
-0.2348210879682612
-0.3022964827954528
-0.31236743724727245
-0.2928969253070878
-0.27141222247653923
-0.250263218127718
-0.22793926909285112
-0.21770046540016783
-0.26671244373235675
-0.3419089036392767
-0.33989471274891275
-0.24992751964599072
-0.1398184176394293
-0.032730601968413826
0.04750133516441596
0.10457007705806058
0.15626764324406803
0.19034103913939115
0.19890135042343787
0.19755855649652856
0.18765545128557257
0.17271686884870677
0.16902418554970625
0.18480201419089035
0.24623483634699012
0.3415732051575494
0.40199893186846725
0.38084992751964597
0.3059891660944533
0.1977264057373922
0.06025787747005417
-0.07872129396505684
-0.19554436560616464
-0.26738384069581134
-0.3016250858319981
-0.31270313572899977
-0.29625391012436103
-0.26570534828717474
-0.2291142137788968
-0.21098649576562137
-0.26066987106126494
-0.3284809643701838
-0.32948805981536583
-0.26469825284199283
-0.16700999465934235
-0.057572289616235596
0.04515144579232471
0.12169069962615398
0.17305256733043411
0.2015869382772564
0.20527962157625693
0.1999084458686198
0.18614480811779963
0.16063172350652322
0.14888227664606699
0.16365300984206912
0.231464103150988
0.33485923552300295
0.4026703288319219
0.39998474097810327
0.33620202944991223
0.21165789272907606
0.058915083543144876
-0.08107118333714809
-0.1935301747158007
-0.2635233081559472
-0.3069962615396353
-0.3217669947356374
-0.3009536888685435
-0.2626840619516289
-0.22928206301976042
-0.2106507972838941
-0.2452277409018082
-0.3157244220645456
-0.3331807431143664
-0.27141222247653923
-0.17154192416266117
-0.06663614862287326
0.029037918669413288
0.10591287098496985
0.16583504997329668
0.19688715953307392
0.20796520943007551
0.21434348058289462
0.20527962157625693
0.18413061722743573
0.15828183413443195
0.14283970397497517
0.1901731898985275
0.2997787441824979
0.39293507286182955
0.41173418783855953
0.3346913862821393
0.2012512397955291
0.05622949568932631
-0.08207827878233005
-0.19554436560616464
-0.26839093614099335
-0.3043106736858167
-0.3090104524299992
-0.28920424200808725
-0.2620126649881742
-0.23733882658121616
-0.21434348058289462
-0.24187075608453498
-0.3130388342107271
-0.3291523613336385
-0.26805523765926603
-0.17372396429388878
-0.06529335469596398
0.043472953383688104
0.12336919203479056
0.16700999465934235
0.17808804455634394
0.17842374303807124
0.18580910963607233
0.19688715953307392
0.1965514610513466
0.16768139162279697
0.1381399252307927
0.18178072785534446
0.2997787441824979
0.40199893186846725
0.41660181582360567
0.3467765316243228
0.23549248493171587
0.09987029831387809
-0.05421530479896238
-0.18883039597161821
-0.26939803158617537
-0.307164110780499
-0.31924925612268257
-0.30296787975890743
-0.27090867475394825
-0.23817807278553446
-0.21232928969253068
-0.22508583199816892
-0.2761120012207217
-0.3111924925612268
-0.29423971923399705
-0.22072175173571373
-0.11111619745174332
0.01326009002822919
0.11900511177233539
0.17422751201647974
0.18278782330052643
0.18547341115434499
0.19118028534370946
0.18916609445334553
0.1790951400015259
0.15996032654306858
0.14216830701152056
0.18345922026398107
0.2959182116426337
0.398641947051194
0.4194552529182879
0.3576867322804608
0.25395590142671853
0.12806897077897306
-0.010910200656137941
-0.1347829404135195
-0.21266498817425802
-0.24858472571908144
-0.2613412680247196
-0.26100556954299226
-0.2546272983901732
-0.2391851682307164
-0.2140077821011673
-0.21904325932707713
-0.27342641336690315
-0.32545967803463793
-0.3059891660944533
-0.2178683146410315
-0.10826276035706112
0.00788891432059205
0.10423437857633323
0.16298161287861446
0.19386587319752804
0.20662241550316623
0.20729381246662087
0.20091554131380177
0.18480201419089035
0.1555962462806134
0.13142595559624626
0.16432440680552376
0.2729228656443122
0.37715724422064545
0.40183108262760353
0.35802243076218815
0.26503395132372015
0.11766231784542608
-0.05522240024414436
-0.1935301747158007
-0.26939803158617537
-0.29558251316090633
-0.3009536888685435
-0.31102464332036317
-0.3073319600213626
-0.2781261921110857
-0.2375066758220798
-0.23616388189517049
-0.29491111619745175
-0.34828717479209587
-0.3251239795529106
-0.22676432440680552
-0.10591287098496985
0.011413748378728923
0.10843060959792476
0.15794613565270463
0.17305256733043411
0.18178072785534446
0.18513771267261767
0.1884946974898909
0.1918516823071641
0.18178072785534446
0.16566720073243305
0.18513771267261767
0.2603341725795376
0.34660868238345927
0.3852140077821012
0.3597009231708247
0.2771190966659037
0.1347829404135195
-0.028366521705958644
-0.15794613565270463
-0.23952086671244371
-0.28282597085526817
-0.2989394979781796
-0.30296787975890743
-0.29558251316090633
-0.27006942854962995
-0.24119935912108034
-0.24354924849317158
-0.29860379949645227
-0.34627298390173183
-0.31941710536354617
-0.22525368123903253
-0.11497672999160755
-0.004196231021591517
0.09752040894178682
0.16818493934538795
0.20192263675898375
0.2025940337224384
0.18178072785534446
0.17137407492179751
0.17372396429388878
0.175066758220798
0.1693598840314336
0.17624170290684368
0.24791332875562672
0.35802243076218815
0.4174410620279241
0.3919279774166476
0.3019607843137255
0.15492484931715875
-0.014435034714274816
-0.1525749599450675
-0.24119935912108034
-0.2845044632639048
-0.2965896086060883
-0.29356832227054247
-0.2808117799649042
-0.2514381628137636
-0.2150148775463493
-0.21031509880216676
-0.26536964980544747
-0.31438162813763637
-0.30045014114595253
-0.23952086671244371
-0.1560997940032044
-0.04599069199664301
0.06764324406805522
0.1552605477988861
0.2025940337224384
0.19453727016098266
0.17372396429388878
0.175066758220798
0.18446631570916305
0.1807736324101625
0.1700312809948882
0.17674525062943464
0.2452277409018082
0.3550011444266422
0.4197909514000152
0.4026703288319219
0.31538872358281833
0.16583504997329668
-0.010238803692683297
-0.15324635690852215
-0.24690623331044484
-0.29423971923399705
-0.3043106736858167
-0.2965896086060883
-0.27913328755626765
-0.26688029297322036
-0.25999847409781035
-0.2516060120546273
-0.2845044632639048
-0.3304951552605478
-0.31538872358281833
-0.2546272983901732
-0.17271686884870677
-0.05522240024414436
0.07049668116273747
0.1542534523537041
0.19218738078889144
0.20192263675898375
0.19789425497825588
0.19588006408789194
0.1901731898985275
0.18362706950484473
0.17573815518425268
0.17691309987029832
0.23616388189517049
0.34627298390173183
0.41425192645151443
0.39797055008773935
0.32881666285191125
0.2140077821011673
0.05119401846341649
-0.11967650873579004
-0.2452277409018082
-0.30128938735027083
-0.3039749752040894
-0.2881971465629053
-0.2710765239948119
-0.269062333104448
-0.26637674525062943
-0.258655680170901
-0.2861829556725414
-0.32780956740672923
-0.3130388342107271
-0.24623483634699012
-0.15542839703974973
-0.041794460975051496
0.07603570611123828
0.16566720073243305
0.21266498817425802
0.21702906843671319
0.19940489814602883
0.1952086671244373
0.19252307927061874
0.18278782330052643
0.17708094911116198
0.18614480811779963
0.24422064545662625
0.32864881361104753
0.37279316395819023
0.3586938277256428
0.30380712596322573
0.2015869382772564
0.050186923018234526
-0.12370489051651787
-0.2569771877622644
-0.3096818493934539
-0.3083390554665446
-0.29188982986190587
-0.27342641336690315
-0.2616769665064469
-0.24892042420080873
-0.2331425955596246
-0.26100556954299226
-0.3130388342107271
-0.31102464332036317
-0.2542915999084459
-0.17892729076066224
-0.07536430914778362
0.04078736552986953
0.13344014648661018
0.19252307927061874
0.2118257419699397
0.20360112916762035
0.1915159838254368
0.1782558937972076
0.17355611505302507
0.17305256733043411
0.18345922026398107
0.24623483634699012
0.3372091248950942
0.39058518348973825
0.3781643396658274
0.32445258258945603
0.2348210879682612
0.08979934386205844
-0.08342107270923933
-0.22240024414435033
-0.2848401617456321
-0.2975967040512703
-0.29356832227054247
-0.27644769970244903
-0.26066987106126494
-0.2509346150911726
-0.23851377126726178
-0.25999847409781035
-0.3096818493934539
-0.31773861295490957
-0.2576485847257191
-0.1675135423819333
-0.07603570611123828
0.017120622568093383
0.11061264972915236
0.18513771267261767
0.21937895780880443
0.21937895780880443
0.1901731898985275
0.1675135423819333
0.16331731136034178
0.16063172350652322
0.16432440680552376
0.2166933699549859
0.31337453269245436
0.39058518348973825
0.40468451972228575
0.3499656672007324
0.2358281834134432
0.0750286106660563
-0.09365987640192262
-0.22407873655298696
-0.28551155870908673
-0.30498207064927135
-0.3026321812771801
-0.28886854352635993
-0.259662775616083
-0.22525368123903253
-0.2133363851377127
-0.2583199816891737
-0.3217669947356374
-0.33183794918745707
-0.26671244373235675
-0.16818493934538795
-0.07553215838864728
0.02668802929732204
0.12588693064774548
0.19285877775234606
0.2192111085679408
0.21266498817425802
0.1884946974898909
0.1710383764400702
0.16633859769588769
0.16163881895170518
0.16281376363775082
0.2106507972838941
0.3039749752040894
0.3828641184100099
0.40451667048142215
0.36037232013427933
0.2546272983901732
0.10222018768596933
-0.059250782024872196
-0.1874876020447089
-0.26671244373235675
-0.3069962615396353
-0.3167315175097276
-0.29692530708781567
-0.2593270771343557
-0.2297856107423514
-0.22575722896162354
-0.26738384069581134
-0.3298237582970931
-0.3388876173037308
-0.2787975890745403
-0.18815899900816355
-0.09013504234378575
0.016617074845502403
0.11363393606469825
0.18178072785534446
0.2140077821011673
0.21568627450980396
0.19588006408789194
0.17238117036697947
0.16700999465934235
0.16868848706797895
0.16700999465934235
0.20729381246662087
0.3039749752040894
0.39327077134355687
0.408041504539559
0.34224460212100405
0.2375066758220798
0.10759136339360646
-0.03843747615777828
-0.17137407492179751
-0.27443350881208517
-0.3210955977721828
-0.3147173266193637
-0.29323262378881515
-0.26973373006790263
-0.24019226367589838
-0.223071641107805
-0.24992751964599072
-0.3053177691309987
-0.32780956740672923
-0.2834973678187228
-0.19554436560616464
-0.10154879072251469
-0.006210421911955443
0.09013504234378575
0.16768139162279697
0.20914015411612116
0.2166933699549859
0.2046082246128023
0.19420157167925536
0.18564126039520865
0.17036697947661553
0.16096742198825056
0.19856565194171052
0.3016250858319981
0.3984740978103304
0.4093842984664683
0.34493018997482255
0.24673838406958112
0.11531242847333485
-0.037094682230869
-0.166674296177615
-0.2576485847257191
-0.30565346761272594
-0.3167315175097276
-0.30783550774395363
-0.286854352635996
-0.258655680170901
-0.23801022354467077
-0.2593270771343557
-0.31270313572899977
-0.3304951552605478
-0.28584725719081405
-0.194369420920119
-0.08476386663614863
0.01913481345845731
0.09013504234378575
0.13142595559624626
0.16700999465934235
0.19722285801480124
0.20729381246662087
0.19168383306630046
0.15996032654306858
0.13914702067597465
0.1420004577706569
0.18916609445334553
0.28853284504463267
0.3848783093003738
0.40502021820401307
0.35231555657282365
0.2630197604333562
0.1347829404135195
-0.017120622568093383
-0.15542839703974973
-0.2546272983901732
-0.30128938735027083
-0.3063248645761807
-0.2881971465629053
-0.25999847409781035
-0.22743572137026014
-0.203265430685893
-0.22105745021744103
-0.2923933775844968
-0.34862287327382313
-0.32243839169909205
-0.23448538948653389
-0.12504768444342718
-0.008224612802319372
0.08107118333714809
0.139482719157702
0.1807736324101625
0.20057984283207447
0.21165789272907606
0.2099794003204395
0.18681620508125427
0.16432440680552376
0.15660334172579538
0.1915159838254368
0.2898756389715419
0.3877317463950561
0.4056916151674677
0.35097276264591437
0.2707408255130846
0.1555962462806134
0.0035248340581368735
-0.14317540245670252
-0.24757763027389945
-0.2996108949416343
-0.31438162813763637
-0.3157244220645456
-0.2984359502555886
-0.27409781033035785
-0.25345235370412755
-0.2438849469748989
-0.29323262378881515
-0.34660868238345927
-0.3184100099183642
-0.2239108873121233
-0.11866941329060808
-0.007553215838864729
0.08308537422751203
0.14015411612115664
0.18312352178225372
0.2059510185397116
0.2025940337224384
0.18648050659952697
0.16298161287861446
0.14250400549324788
0.1461966887922484
0.18513771267261767
0.2798046845197223
0.3811856260013733
0.42281223773556104
0.39830624856946667
0.3046463721675441
0.1576104371709773
0.003860532539864194
-0.1284046692607004
-0.22508583199816892
-0.2834973678187228
-0.32277409018081943
-0.33183794918745707
-0.30112153810940717
-0.2583199816891737
-0.22508583199816892
-0.22072175173571373
-0.2754406042572671
-0.33083085374227506
-0.31773861295490957
-0.2438849469748989
-0.14183260852979326
-0.027359426260776684
0.06898603799496453
0.12739757381551842
0.16902418554970625
0.19688715953307392
0.2093080033569848
0.20863660639353018
0.1982299534599832
0.18950179293507285
0.17170977340352483
0.16566720073243305
0.2391851682307164
0.35802243076218815
0.4249942778667888
0.40871290150301365
0.315053025101091
0.17489890897993438
0.0213168535896849
-0.12471198596169988
-0.23045700770580602
-0.27946898603799497
-0.30128938735027083
-0.30565346761272594
-0.2841687647821775
-0.2546272983901732
-0.22592507820248725
-0.2203860532539864
-0.2793011367971313
-0.34795147631036855
-0.33183794918745707
-0.24455634393835354
-0.13746852826733807
-0.025009536888685433
0.07905699244678416
0.15391775387197681
0.19050888838025481
0.19235523002975508
0.1910124361028458
0.19453727016098266
0.18950179293507285
0.17557030594338902
0.14854657816433967
0.14183260852979326
0.22139314869916837
0.34560158693827725
0.41374837872892345
0.3964599069199664
0.31001754787518115
0.17943083848325322
0.033066300450141146
-0.11329823758297093
-0.22240024414435033
-0.277454795147631
-0.30565346761272594
-0.32042420080872813
-0.29860379949645227
-0.2583199816891737
-0.22844281681544215
-0.223071641107805
-0.2704051270313573
-0.32579537651636525
-0.3251239795529106
-0.26939803158617537
-0.17607385366598
-0.05589379720759898
0.06630045014114595
0.15291065842679483
0.17708094911116198
0.1710383764400702
0.1790951400015259
0.19420157167925536
0.19319447623407338
0.17959868772411688
0.16499580376897838
0.17070267795834287
0.23616388189517049
0.34224460212100405
0.4134126802471962
0.40904859998474097
0.33284504463263903
0.19856565194171052
0.04548714427405204
-0.09315632867933166
-0.20091554131380177
-0.26469825284199283
-0.29188982986190587
-0.29423971923399705
-0.28752574959945065
-0.2818188754100862
-0.26066987106126494
-0.23985656519417106
-0.269062333104448
-0.3200885023270008
-0.3311665522240024
-0.277454795147631
-0.1807736324101625
-0.059250782024872196
0.061432822156099784
0.14988937209124895
0.19050888838025481
0.19688715953307392
0.19638361181048294
0.19369802395666438
0.18983749141680015
0.18110933089188982
0.15962462806134128
0.15223926146334021
0.2178683146410315
0.3372091248950942
0.42549782558937965
0.4318760967421988
0.3627222095063706
0.2358281834134432
0.0703288319218738
-0.09819180590524147
-0.22525368123903253
-0.29088273441672385
-0.3017929350728618
-0.2881971465629053
-0.28517586022735936
-0.28752574959945065
-0.2687266346227206
-0.2358281834134432
-0.2509346150911726
-0.3009536888685435
-0.32310978866254675
-0.2902113374532692
-0.20427252613107502
-0.07939269092851148
0.05354390783550774
0.14955367360952163
0.18883039597161821
0.18916609445334553
0.18916609445334553
0.19218738078889144
0.19118028534370946
0.18144502937361714
0.16902418554970625
0.1710383764400702
0.22374303807125961
0.3187457084000916
0.3952849622339208
0.40468451972228575
0.3476157778286411
0.23649958037689783
0.06697184710460058
-0.10524147402151522
-0.21770046540016783
-0.2720836194399938
-0.2959182116426337
-0.29692530708781567
-0.2903791866941329
-0.27493705653467615
-0.24220645456626225
-0.2150148775463493
-0.24136720836194397
-0.3064927138170443
-0.33519493400473027
-0.29356832227054247
-0.2002441443503471
-0.08778515297169451
0.028030823224231328
0.12454413672083621
0.18513771267261767
0.20662241550316623
0.19722285801480124
0.17573815518425268
0.17439536125734342
0.1837949187457084
0.18345922026398107
0.17640955214770732
0.20527962157625693
0.29054703593499653
0.3756466010528725
0.4006561379415579
0.3570153353170062
0.25563439383535513
0.09919890135042343
-0.06932173647669183
-0.19621576256961928
-0.2630197604333562
-0.28886854352635993
-0.29726100556954294
-0.2996108949416343
-0.2841687647821775
-0.24757763027389945
-0.2150148775463493
-0.23112840466926068
-0.29222552834363313
-0.3268024719615472
-0.2861829556725414
-0.2076295109483482
-0.11363393606469825
0.0005035477225909818
0.1065842679484245
0.1774166475928893
0.21031509880216676
0.20393682764934767
0.18580910963607233
0.1837949187457084
0.18043793392843518
0.1733882658121614
0.16902418554970625
0.1999084458686198
0.28920424200808725
0.3831998168917372
0.40451667048142215
0.34946211947814143
0.2529488059815366
0.11329823758297093
-0.054047455558098714
-0.18883039597161821
-0.25479514763103683
-0.2707408255130846
-0.2761120012207217
-0.27443350881208517
-0.2626840619516289
-0.2532845044632639
-0.24757763027389945
-0.2662088960097657
-0.31337453269245436
-0.33620202944991223
-0.3002822919050888
-0.2264286259250782
-0.12437628747997252
-0.0008392462043183033
0.10725566491187914
0.17708094911116198
0.21266498817425802
0.2133363851377127
0.19168383306630046
0.1790951400015259
0.17959868772411688
0.18110933089188982
0.17959868772411688
0.2025940337224384
0.2771190966659037
0.36742198825055317
0.40703440909437705
0.37514305333028153
0.27779049362935837
0.13864347295338367
-0.01695277332722972
-0.16533150225070573
-0.278461890592813
-0.3261310749980926
-0.31924925612268257
-0.2915541313801785
-0.27006942854962995
-0.26536964980544747
-0.25731288624399173
-0.26536964980544747
-0.31438162813763637
-0.33922331578545817
-0.2928969253070878
-0.21518272678721292
-0.1279011215381094
-0.010238803692683297
0.10826276035706112
0.18446631570916305
0.2106507972838941
0.19554436560616464
0.1710383764400702
0.17271686884870677
0.18345922026398107
0.18681620508125427
0.18245212481879908
0.20192263675898375
0.28584725719081405
0.3816891737239643
0.40502021820401307
0.36171511406118867
0.2715800717174029
0.1475394827191577
-0.0008392462043183033
-0.15996032654306858
-0.2720836194399938
-0.3080033569848173
-0.3043106736858167
-0.2821545738918135
-0.25395590142671853
-0.23985656519417106
-0.23179980163271532
-0.24187075608453498
-0.28853284504463267
-0.3217669947356374
-0.28920424200808725
-0.21635767147325857
-0.1381399252307927
-0.030716411078049892
0.08174258030060273
0.15962462806134128
0.2025940337224384
0.21736476691844053
0.21165789272907606
0.19252307927061874
0.16533150225070573
0.1445181963836118
0.1414969100480659
0.18345922026398107
0.28047608148317693
0.36507209887846187
0.3885709925993744
0.3563439383535515
0.28114747844663157
0.15727473868925002
-0.0008392462043183033
-0.1508964675364309
-0.2542915999084459
-0.29356832227054247
-0.2915541313801785
-0.2824902723735408
-0.2767833981841764
-0.26805523765926603
-0.2512703135728999
-0.240863660639353
-0.2767833981841764
-0.3184100099183642
-0.3002822919050888
-0.22105745021744103
-0.12236209658960862
-0.020645456626230255
0.06428625925078202
0.12941176470588234
0.17892729076066224
0.20225833524071107
0.20057984283207447
0.18782330052643625
0.17708094911116198
0.17305256733043411
0.17036697947661553
0.19218738078889144
0.2761120012207217
0.36775768673228043
0.4060273136491951
0.37917143511100937
0.2965896086060883
0.16768139162279697
0.007553215838864729
-0.15056076905470359
-0.26536964980544747
-0.31606012054627297
-0.3157244220645456
-0.29423971923399705
-0.2767833981841764
-0.2583199816891737
-0.2306248569466697
-0.23112840466926068
-0.2915541313801785
-0.3385519188220035
-0.3138780804150454
-0.23280689707789726
-0.13109025711451894
-0.0323949034866865
0.057236591134508276
0.13243305104142825
0.18480201419089035
0.20796520943007551
0.21232928969253068
0.19789425497825588
0.17170977340352483
0.15542839703974973
0.1555962462806134
0.18211642633707179
0.2620126649881742
0.3570153353170062
0.40099183642328523
0.38924238956282897
0.32445258258945603
0.19755855649652856
0.035416189822232394
-0.11531242847333485
-0.223071641107805
-0.2834973678187228
-0.31337453269245436
-0.3147173266193637
-0.28752574959945065
-0.2480811779964904
-0.223071641107805
-0.23549248493171587
-0.2881971465629053
-0.3261310749980926
-0.30363927672236213
-0.2331425955596246
-0.1406576638437476
-0.03910887312123293
0.05992217898832684
0.1414969100480659
0.1977264057373922
0.22005035477225907
0.21199359121080338
0.19050888838025481
0.1700312809948882
0.16298161287861446
0.16499580376897838
0.1802700846875715
0.2541237506675822
0.3570153353170062
0.4160982681010147
0.39058518348973825
0.30330357824063475
0.18010223544670784
0.03138780804150454
-0.11161974517433432
-0.2140077821011673
-0.2890363927672236
-0.33334859235523
-0.3252918287937743
-0.287861448081178
-0.25597009231708245
-0.2297856107423514
-0.2247501335164416
-0.27426565957122145
-0.32780956740672923
-0.3163958190280003
-0.24623483634699012
-0.15056076905470359
-0.05119401846341649
0.035751888303959714
0.12034790569924468
0.18043793392843518
0.20494392309452963
0.20830090791180284
0.20057984283207447
0.18446631570916305
0.16231021591515984
0.14418249790188448
0.1508964675364309
0.22139314869916837
0.3355306324864576
0.40988784618905927
0.3919279774166476
0.3179064621957733
0.21199359121080338
0.07603570611123828
-0.07167162584878309
-0.19218738078889144
-0.27309071488517583
-0.3090104524299992
-0.30296787975890743
-0.27644769970244903
-0.2505989166094453
-0.22793926909285112
-0.21635767147325857
-0.2552986953536278
-0.3043106736858167
-0.3059891660944533
-0.2554665445944915
-0.17674525062943464
-0.07335011825741969
0.037262531471732654
0.11430533302815289
0.15056076905470359
0.17405966277561608
0.1918516823071641
0.1965514610513466
0.18648050659952697
0.15811398489356832
0.13746852826733807
0.15223926146334021
0.22340733958953235
0.3355306324864576
0.4134126802471962
0.40401312275883117
0.33150225070572975
0.21937895780880443
0.07167162584878309
-0.08073548485542076
-0.19856565194171052
-0.2771190966659037
-0.3197528038452735
-0.3157244220645456
-0.29054703593499653
-0.2608377203021286
-0.2297856107423514
-0.2099794003204395
-0.24472419317921723
-0.31404592965590905
-0.3375448233768215
-0.28014038300144956
-0.1874876020447089
-0.0797283894102388
0.03608758678568704
0.1096055542839704
0.14821087968261232
0.17305256733043411
0.18463416495002669
0.19453727016098266
0.1990691996643015
0.1837949187457084
0.15928892957961394
0.15626764324406803
0.22189669642175933
0.33385214007782105
0.41257343404287783
0.40871290150301365
0.3373769741359579
0.2297856107423514
0.09047074082551307
-0.06764324406805522
-0.2012512397955291
-0.2761120012207217
-0.3002822919050888
-0.30498207064927135
-0.3016250858319981
-0.2776226443884947
-0.24119935912108034
-0.21635767147325857
-0.24119935912108034
-0.315053025101091
-0.3499656672007324
-0.2965896086060883
-0.19621576256961928
-0.08476386663614863
0.03054856183718624
0.11262684061951626
0.15492484931715875
0.18782330052643625
0.20393682764934767
0.19856565194171052
0.18983749141680015
0.1733882658121614
0.1542534523537041
0.1555962462806134
0.21199359121080338
0.32210269321736473
0.4154268711375601
0.42549782558937965
0.3637293049515526
0.24690623331044484
0.0891279468986038
-0.06663614862287326
-0.18480201419089035
-0.25496299687190055
-0.2841687647821775
-0.30128938735027083
-0.31068894483863574
-0.29188982986190587
-0.25395590142671853
-0.22172884718089572
-0.24254215304798965
-0.31169604028381775
-0.34392309452964065
-0.29692530708781567
-0.1999084458686198
-0.0861066605630579
0.03205920500495917
0.12068360418097199
0.16633859769588769
0.19453727016098266
0.2046082246128023
0.2046082246128023
0.2029297322041657
0.19588006408789194
0.18681620508125427
0.16902418554970625
0.18715190356298161
0.28047608148317693
0.3805142290379186
0.41139848935683215
0.3657434958419165
0.2480811779964904
0.0891279468986038
-0.060090028229190504
-0.17540245670252536
-0.2452277409018082
-0.27443350881208517
-0.2821545738918135
-0.2776226443884947
-0.2613412680247196
-0.23112840466926068
-0.20225833524071107
-0.22172884718089572
-0.2989394979781796
-0.35365835049973293
-0.31773861295490957
-0.223071641107805
-0.11430533302815289
0.007721065079728388
0.11598382543678949
0.18211642633707179
0.19453727016098266
0.175066758220798
0.1688563363088426
0.17976653696498052
0.18446631570916305
0.17305256733043411
0.14418249790188448
0.16096742198825056
0.27006942854962995
0.3885709925993744
0.4285191119249256
0.3831998168917372
0.26839093614099335
0.11245899137865262
-0.043472953383688104
-0.16281376363775082
-0.24321355001144426
-0.28752574959945065
-0.3053177691309987
-0.3076676585030899
-0.2798046845197223
-0.23784237430380706
-0.20360112916762035
-0.2099794003204395
-0.26671244373235675
-0.3085069047074082
-0.2923933775844968
-0.2297856107423514
-0.13344014648661018
-0.011749446860456245
0.09987029831387809
0.1696955825131609
0.18345922026398107
0.17640955214770732
0.1777523460746166
0.18446631570916305
0.18245212481879908
0.16768139162279697
0.147875181200885
0.16835278858625158
0.26570534828717474
0.3852140077821012
0.4365758754863813
0.39595635919737543
0.2845044632639048
0.12773327229724574
-0.027695124742504008
-0.15912108033875028
-0.25227740901808193
-0.2915541313801785
-0.2992751964599069
-0.29625391012436103
-0.29256122682536045
-0.2861829556725414
-0.2640268558785382
-0.2546272983901732
-0.286854352635996
-0.31606012054627297
-0.2989394979781796
-0.2306248569466697
-0.12303349355306323
0.0015106431677729458
0.10255588616769665
0.17170977340352483
0.20057984283207447
0.19453727016098266
0.18413061722743573
0.18211642633707179
0.17875944151979858
0.1710383764400702
0.1569390402075227
0.16633859769588769
0.24690623331044484
0.3543297474631876
0.41072709239337757
0.38924238956282897
0.29860379949645227
0.16063172350652322
-0.006881818875410085
-0.16633859769588769
-0.26688029297322036
-0.30296787975890743
-0.30045014114595253
-0.28752574959945065
-0.2841687647821775
-0.2720836194399938
-0.23717097734035245
-0.2247501335164416
-0.2687266346227206
-0.31337453269245436
-0.30330357824063475
-0.23515678644998858
-0.12974746318760969
-0.01359578850995651
0.0844281681544213
0.1461966887922484
0.16801709010452429
0.16298161287861446
0.16432440680552376
0.17708094911116198
0.18446631570916305
0.17573815518425268
0.16734569314106965
0.18345922026398107
0.24959182116426334
0.33519493400473027
0.38588540474555577
0.37312886243991755
0.3053177691309987
0.18648050659952697
0.017288471808957043
-0.14720378423743039
-0.2464026855878538
-0.2771190966659037
-0.2781261921110857
-0.26671244373235675
-0.2626840619516289
-0.2620126649881742
-0.23985656519417106
-0.22508583199816892
-0.26738384069581134
-0.32243839169909205
-0.3187457084000916
-0.25261310749980925
-0.14082551308461125
-0.01292439154650187
0.09416342412451362
0.15828183413443195
0.18832684824902723
0.19856565194171052
0.18782330052643625
0.16633859769588769
0.15878538185702296
0.1576104371709773
0.15156786449988555
0.16835278858625158
0.2339818417639429
0.3210955977721828
0.37514305333028153
0.36641489280537115
0.29910734721904325
0.18345922026398107
0.03138780804150454
-0.12269779507133592
-0.23515678644998858
-0.2890363927672236
-0.3002822919050888
-0.29188982986190587
-0.2834973678187228
-0.27006942854962995
-0.24119935912108034
-0.22508583199816892
-0.26671244373235675
-0.31773861295490957
-0.30363927672236213
-0.23112840466926068
-0.14720378423743039
-0.06126497291523613
0.03172350652323186
0.11850156404974439
0.17540245670252536
0.19856565194171052
0.18648050659952697
0.16952773327229725
0.16432440680552376
0.16365300984206912
0.15828183413443195
0.16633859769588769
0.23247119859617
0.3321736476691844
0.3956206607156481
0.3875638971541924
0.3157244220645456
0.1935301747158007
0.0387731746395056
-0.11984435797665367
-0.22777141985198748
-0.27493705653467615
-0.28953994048981463
-0.2824902723735408
-0.2593270771343557
-0.23683527885862518
-0.22861066605630578
-0.24052796215762567
-0.2781261921110857
-0.3187457084000916
-0.3096818493934539
-0.23851377126726178
-0.15962462806134128
-0.06663614862287326
0.044815747310597384
0.14048981460288396
0.19386587319752804
0.21031509880216676
0.2046082246128023
0.194369420920119
0.19118028534370946
0.19050888838025481
0.18110933089188982
0.17943083848325322
0.23213550011444264
0.32394903486686505
0.39662775616083007
0.40401312275883117
0.3380483710994125
0.21736476691844053
0.06344701304646372
-0.09282063019760432
-0.21434348058289462
-0.286854352635996
-0.30934615091172657
-0.30061799038681614
-0.27141222247653923
-0.23968871595330735
-0.23112840466926068
-0.24052796215762567
-0.27779049362935837
-0.3184100099183642
-0.315053025101091
-0.2579842832074464
-0.17674525062943464
-0.07234302281223774
0.04531929503318838
0.14418249790188448
0.2024261844815747
0.21736476691844053
0.2017547875181201
0.17842374303807124
0.17305256733043411
0.17573815518425268
0.17238117036697947
0.16768139162279697
0.21719691767757685
0.3200885023270008
0.3868925001907378
0.3691004806591897
0.3026321812771801
0.19504081788357364
0.054551003280689715
-0.08476386663614863
-0.20964370183871214
-0.2965896086060883
-0.3298237582970931
-0.31908140688181885
-0.2861829556725414
-0.25445944914930957
-0.23247119859617
-0.22609292744335088
-0.24925612268253605
-0.29558251316090633
-0.3147173266193637
-0.2640268558785382
-0.17875944151979858
-0.08744945448996719
0.027695124742504008
0.13881132219424736
0.21132219424734877
0.23347829404135198
0.22340733958953235
0.21132219424734877
0.1952086671244373
0.1688563363088426
0.15660334172579538
0.16298161287861446
0.22206454566262301
0.3274738689250019
0.38991378652628367
0.3778286411841001
0.32579537651636525
0.23985656519417106
0.10759136339360646
-0.049851224536507206
-0.1901731898985275
-0.28551155870908673
-0.31253528648813605
-0.29054703593499653
-0.26939803158617537
-0.2552986953536278
-0.24052796215762567
-0.231464103150988
-0.2541237506675822
-0.30565346761272594
-0.323445487144274
-0.2724193179217212
-0.18648050659952697
-0.08778515297169451
0.015106431677729458
0.09852750438696878
0.1576104371709773
0.19638361181048294
0.21165789272907606
0.20494392309452963
0.1777523460746166
0.147875181200885
0.13998626688029298
0.1508964675364309
0.20444037537193865
0.30061799038681614
0.37413595788509957
0.37715724422064545
0.32948805981536583
0.24892042420080873
0.11833371480888075
-0.03944457160296025
-0.18178072785534446
-0.2754406042572671
-0.30296787975890743
-0.29491111619745175
-0.278461890592813
-0.2593270771343557
-0.23448538948653389
-0.2140077821011673
-0.25227740901808193
-0.3298237582970931
-0.35281910429541463
-0.29457541771572443
-0.1901731898985275
-0.07469291218432898
0.019974059662775615
0.08845654993514916
0.1475394827191577
0.18950179293507285
0.20527962157625693
0.20729381246662087
0.1918516823071641
0.17288471808957045
0.16096742198825056
0.1569390402075227
0.19621576256961928
0.29457541771572443
0.3781643396658274
0.3946135652704661
0.34895857175555045
0.2583199816891737
0.12605477988860914
-0.03172350652323186
-0.16902418554970625
-0.25362020294499127
-0.2928969253070878
-0.3130388342107271
-0.3090104524299992
-0.2781261921110857
-0.2391851682307164
-0.21635767147325857
-0.24824902723735406
-0.3207598992904554
-0.3459372854200045
-0.28953994048981463
-0.19453727016098266
-0.08543526359960325
0.019302662699320974
0.10457007705806058
0.17070267795834287
0.21132219424734877
0.22508583199816892
0.21467917906462194
0.1918516823071641
0.16600289921416037
0.15794613565270463
0.16281376363775082
0.19839780270084686
0.2890363927672236
0.3865568017090104
0.42113374532692444
0.370443274586099
0.25479514763103683
0.10826276035706112
-0.03440909437705043
-0.1569390402075227
-0.2472419317921721
-0.31068894483863574
-0.3385519188220035
-0.32780956740672923
-0.29054703593499653
-0.2546272983901732
-0.23683527885862518
-0.2593270771343557
-0.3184100099183642
-0.34056610971236745
-0.29088273441672385
-0.19722285801480124
-0.09483482108796826
-0.004196231021591517
0.07368581673914701
0.1492179751277943
0.1965514610513466
0.20796520943007551
0.2046082246128023
0.19453727016098266
0.17808804455634394
0.15794613565270463
0.139482719157702
0.16868848706797895
0.26939803158617537
0.37883573662928205
0.42684061951628904
0.37715724422064545
0.25731288624399173
0.1096055542839704
-0.0481727321278706
-0.18345922026398107
-0.269565880827039
-0.31992065308613715
-0.34039826047150373
-0.3284809643701838
-0.29390402075226973
-0.2579842832074464
-0.23549248493171587
-0.25227740901808193
-0.31992065308613715
-0.3578545815213245
-0.31085679407949945
-0.2192111085679408
-0.11900511177233539
-0.009567406729228655
0.09349202716105898
0.15895323109788664
0.18513771267261767
0.19571221484702828
0.1999084458686198
0.203265430685893
0.19554436560616464
0.1675135423819333
0.14351110093842984
0.17154192416266117
0.2754406042572671
0.3919279774166476
0.437247272449836
0.37833218890669107
0.2616769665064469
0.139482719157702
0.009903105210955977
-0.1257190814068818
-0.2291142137788968
-0.28752574959945065
-0.3098496986343175
-0.29860379949645227
-0.2707408255130846
-0.23985656519417106
-0.21098649576562137
-0.21132219424734877
-0.25949492637521937
-0.3090104524299992
-0.3096818493934539
-0.24489204242008086
-0.12974746318760969
-0.0015106431677729458
0.10910200656137943
0.1693598840314336
0.18698405432211795
0.19453727016098266
0.20527962157625693
0.20830090791180284
0.19621576256961928
0.17372396429388878
0.1535820553902495
0.17238117036697947
0.26637674525062943
0.38588540474555577
0.43892576485847257
0.3946135652704661
0.2928969253070878
0.16298161287861446
0.01326009002822919
-0.1284046692607004
-0.22710002288853282
-0.2771190966659037
-0.29222552834363313
-0.29692530708781567
-0.29625391012436103
-0.27141222247653923
-0.231464103150988
-0.21367208361943996
-0.26066987106126494
-0.3341878385595483
-0.34056610971236745
-0.2613412680247196
-0.147875181200885
-0.022323949034866862
0.0882887006942855
0.1552605477988861
0.1884946974898909
0.20192263675898375
0.20427252613107502
0.20527962157625693
0.20057984283207447
0.18194857709620815
0.1576104371709773
0.16633859769588769
0.24422064545662625
0.3597009231708247
0.43053330281528956
0.40988784618905927
0.31941710536354617
0.18446631570916305
0.022491798275730522
-0.12773327229724574
-0.22928206301976042
-0.2781261921110857
-0.29457541771572443
-0.3103532463569085
-0.30783550774395363
-0.2737621118486305
-0.23649958037689783
-0.22105745021744103
-0.2579842832074464
-0.31404592965590905
-0.31706721599145493
-0.24623483634699012
-0.13847562371252
-0.01896696421759365
0.09214923323414968
0.1555962462806134
0.17305256733043411
0.17708094911116198
0.18580910963607233
0.19722285801480124
0.19856565194171052
0.18480201419089035
0.15928892957961394
0.15156786449988555
0.20863660639353018
0.32126344701304643
0.40401312275883117
0.40032043945983065
0.32864881361104753
0.19168383306630046
0.01560997940032044
-0.13847562371252
-0.23952086671244371
-0.2848401617456321
-0.29390402075226973
-0.29356832227054247
-0.27946898603799497
-0.24992751964599072
-0.2212252994583047
-0.21098649576562137
-0.24791332875562672
-0.3080033569848173
-0.3274738689250019
-0.2648661020828565
-0.15458915083543145
-0.041123064011596856
0.061432822156099784
0.14518959334706644
0.19722285801480124
0.20091554131380177
0.1790951400015259
0.1700312809948882
0.17640955214770732
0.18144502937361714
0.175066758220798
0.1594567788204776
0.2056153200579843
0.3167315175097276
0.3984740978103304
0.3936064698252842
0.32814526588845655
0.2140077821011673
0.054551003280689715
-0.09752040894178682
-0.20309758144502937
-0.2648661020828565
-0.29222552834363313
-0.2989394979781796
-0.29423971923399705
-0.26604104676890206
-0.23012130922407872
-0.21098649576562137
-0.24321355001144426
-0.3085069047074082
-0.32646677347981995
-0.2771190966659037
-0.19571221484702828
-0.08812085145342184
0.027862973983367664
0.12739757381551842
0.19453727016098266
0.203265430685893
0.18312352178225372
0.1790951400015259
0.18564126039520865
0.18295567254139009
0.17137407492179751
0.15794613565270463
0.20393682764934767
0.31337453269245436
0.39595635919737543
0.3996490424963759
0.33284504463263903
0.20695811398489355
0.04213015945677882
-0.1065842679484245
-0.21367208361943996
-0.2757763027389944
-0.29558251316090633
-0.2915541313801785
-0.2771190966659037
-0.26805523765926603
-0.2616769665064469
-0.2391851682307164
-0.24657053482871744
-0.29558251316090633
-0.3111924925612268
-0.27409781033035785
-0.20360112916762035
-0.10490577553978789
0.01594567788204776
0.11934081025406272
0.18144502937361714
0.20393682764934767
0.20527962157625693
0.20527962157625693
0.2076295109483482
0.1992370489051652
0.1807736324101625
0.16499580376897838
0.19789425497825588
0.29726100556954294
0.39578850995651177
0.42314793621728847
0.36876478217746245
0.2589913786526284
0.1079270618753338
-0.06529335469596398
-0.21602197299153122
-0.29558251316090633
-0.3147173266193637
-0.3085069047074082
-0.28970778973067823
-0.2848401617456321
-0.28047608148317693
-0.25563439383535513
-0.2542915999084459
-0.2996108949416343
-0.32243839169909205
-0.28114747844663157
-0.20393682764934767
-0.1062485694666972
0.0157778286411841
0.1257190814068818
0.18782330052643625
0.2056153200579843
0.19755855649652856
0.19369802395666438
0.1965514610513466
0.19050888838025481
0.17842374303807124
0.17288471808957045
0.2133363851377127
0.30380712596322573
0.37279316395819023
0.3831998168917372
0.33955901426718543
0.24422064545662625
0.10255588616769665
-0.06630045014114595
-0.20830090791180284
-0.28148317692835884
-0.3022964827954528
-0.29188982986190587
-0.27006942854962995
-0.26150911726558324
-0.2512703135728999
-0.23112840466926068
-0.24119935912108034
-0.2902113374532692
-0.31102464332036317
-0.2767833981841764
-0.20427252613107502
-0.09684901197833219
0.02719157701991302
0.12202639810788128
0.17691309987029832
0.20057984283207447
0.203265430685893
0.19252307927061874
0.17137407492179751
0.15492484931715875
0.1468680857557031
0.15542839703974973
0.1999084458686198
0.27913328755626765
0.3570153353170062
0.39159227893492027
0.3607080186160067
0.267048142214084
0.12336919203479056
-0.04783703364614328
-0.1874876020447089
-0.258655680170901
-0.2771190966659037
-0.2707408255130846
-0.2579842832074464
-0.258655680170901
-0.2576485847257191
-0.2341496910048066
-0.23112840466926068
-0.278461890592813
-0.31404592965590905
-0.2808117799649042
-0.2002441443503471
-0.11514457923247119
-0.02366674296177615
0.07536430914778362
0.1569390402075227
0.20091554131380177
0.20863660639353018
0.1790951400015259
0.1512321660181582
0.15223926146334021
0.16432440680552376
0.1700312809948882
0.19722285801480124
0.2818188754100862
0.37245746547646297
0.40132753490501255
0.3581902800030518
0.267048142214084
0.13545433737697413
-0.025680933852140077
-0.17288471808957045
-0.26066987106126494
-0.2928969253070878
-0.29558251316090633
-0.2787975890745403
-0.24858472571908144
-0.2183718623636225
-0.21232928969253068
-0.2505989166094453
-0.3103532463569085
-0.3365377279316396
-0.2992751964599069
-0.2166933699549859
-0.12437628747997252
-0.019302662699320974
0.08879224841687647
0.16768139162279697
0.20192263675898375
0.20360112916762035
0.18245212481879908
0.16197451743343252
0.15677119096665904
0.1569390402075227
0.15291065842679483
0.18228427557793545
0.26688029297322036
0.3570153353170062
0.39327077134355687
0.36305790798809795
0.2831616693369955
0.15828183413443195
0.0028534370946822307
-0.14082551308461125
-0.24589913786526282
-0.31102464332036317
-0.3261310749980926
-0.30565346761272594
-0.27309071488517583
-0.24254215304798965
-0.2375066758220798
-0.26469825284199283
-0.31404592965590905
-0.3387197680628672
-0.30128938735027083
-0.21635767147325857
-0.1257190814068818
-0.030380712596322572
0.06898603799496453
0.15056076905470359
0.19789425497825588
0.21165789272907606
0.20057984283207447
0.17842374303807124
0.16768139162279697
0.17036697947661553
0.16298161287861446
0.17355611505302507
0.2628519111924925
0.37111467154955363
0.4060273136491951
0.3597009231708247
0.27443350881208517
0.15223926146334021
0.0025177386129549098
-0.13914702067597465
-0.24623483634699012
-0.30565346761272594
-0.3163958190280003
-0.29423971923399705
-0.26503395132372015
-0.24338139925230795
-0.22575722896162354
-0.22710002288853282
-0.27342641336690315
-0.31908140688181885
-0.2959182116426337
-0.21535057602807656
-0.12269779507133592
-0.017624170290684367
0.0908064393072404
0.17070267795834287
0.20729381246662087
0.2106507972838941
0.20360112916762035
0.19856565194171052
0.17976653696498052
0.15626764324406803
0.1512321660181582
0.17422751201647974
0.258655680170901
0.362050812542916
0.3998168917372396
0.36221866178377965
0.28114747844663157
0.16533150225070573
0.019974059662775615
-0.12974746318760969
-0.2519417105363546
-0.31706721599145493
-0.3237811856260014
-0.30296787975890743
-0.27443350881208517
-0.24254215304798965
-0.22575722896162354
-0.24187075608453498
-0.28752574959945065
-0.32579537651636525
-0.3024643320363164
-0.22240024414435033
-0.1253833829251545
-0.025680933852140077
0.06428625925078202
0.12605477988860914
0.17036697947661553
0.19319447623407338
0.19789425497825588
0.1965514610513466
0.17674525062943464
0.15458915083543145
0.14854657816433967
0.16768139162279697
0.24824902723735406
0.3637293049515526
0.41878385595483325
0.3865568017090104
0.29994659342336155
0.18043793392843518
0.04011596856641489
-0.10289158464942397
-0.2203860532539864
-0.29188982986190587
-0.3076676585030899
-0.28886854352635993
-0.2643625543602655
-0.24220645456626225
-0.22072175173571373
-0.21635767147325857
-0.27006942854962995
-0.3372091248950942
-0.3304951552605478
-0.2512703135728999
-0.14586099031052108
-0.032730601968413826
0.05622949568932631
0.12001220721751735
0.17372396429388878
0.20527962157625693
0.20796520943007551
0.19856565194171052
0.18110933089188982
0.16734569314106965
0.16482795452811475
0.17708094911116198
0.24489204242008086
0.34224460212100405
0.3925993743801023
0.3691004806591897
0.30565346761272594
0.20964370183871214
0.06663614862287326
-0.07838559548332952
-0.1790951400015259
-0.2391851682307164
-0.2767833981841764
-0.29423971923399705
-0.2771190966659037
-0.2400244144350347
-0.20494392309452963
-0.1935301747158007
-0.24992751964599072
-0.3200885023270008
-0.32243839169909205
-0.2512703135728999
-0.14586099031052108
-0.0387731746395056
0.049515526054779886
0.12001220721751735
0.17708094911116198
0.2076295109483482
0.2133363851377127
0.20527962157625693
0.18245212481879908
0.1542534523537041
0.14485389486533912
0.16163881895170518
0.22944991226062406
0.33687342641336687
0.40703440909437705
0.39125658045319295
0.3111924925612268
0.19050888838025481
0.03944457160296025
-0.11128404669260701
-0.21904325932707713
-0.2757763027389944
-0.315053025101091
-0.33351644159609367
-0.3147173266193637
-0.2720836194399938
-0.23649958037689783
-0.2203860532539864
-0.26503395132372015
-0.3304951552605478
-0.33385214007782105
-0.26469825284199283
-0.16566720073243305
-0.056900892652780956
0.04078736552986953
0.10859845883878842
0.16197451743343252
0.19789425497825588
0.20779736018921185
0.2056153200579843
0.19957274738689249
0.18715190356298161
0.16499580376897838
0.14720378423743039
0.19420157167925536
0.2975967040512703
0.38722819867246505
0.40401312275883117
0.3284809643701838
0.19621576256961928
0.04682993820096131
-0.09684901197833219
-0.2029297322041657
-0.26604104676890206
-0.30128938735027083
-0.3157244220645456
-0.3024643320363164
-0.2687266346227206
-0.23649958037689783
-0.21803616388189515
-0.2509346150911726
-0.3172350652323186
-0.32814526588845655
-0.26771953917753877
-0.17204547188525215
-0.06462195773250935
0.04078736552986953
0.12739757381551842
0.17372396429388878
0.17976653696498052
0.1777523460746166
0.17573815518425268
0.18446631570916305
0.18782330052643625
0.16029602502479592
0.13679713130388343
0.18983749141680015
0.30582131685358965
0.39159227893492027
0.4033417257953765
0.34694438086518653
0.23549248493171587
0.08509956511787593
-0.06865033951323721
-0.1910124361028458
-0.25949492637521937
-0.2915541313801785
-0.3091783016708629
-0.2975967040512703
-0.26335545891508355
-0.2297856107423514
-0.21367208361943996
-0.23985656519417106
-0.29793240253299763
-0.3304951552605478
-0.2996108949416343
-0.21266498817425802
-0.0963454642557412
0.025009536888685433
0.11967650873579004
0.16633859769588769
0.18614480811779963
0.19252307927061874
0.19369802395666438
0.18983749141680015
0.17540245670252536
0.1525749599450675
0.1406576638437476
0.19218738078889144
0.3120317387655451
0.41139848935683215
0.42952620737010755
0.3597009231708247
0.2341496910048066
0.09013504234378575
-0.057236591134508276
-0.1782558937972076
-0.24472419317921723
-0.27174792095826655
-0.28886854352635993
-0.29575036240177
-0.28719005111772333
-0.2583199816891737
-0.22508583199816892
-0.2331425955596246
-0.29356832227054247
-0.33922331578545817
-0.31102464332036317
-0.21300068665598534
-0.09013504234378575
0.0260166323338674
0.11850156404974439
0.17640955214770732
0.20360112916762035
0.21199359121080338
0.2076295109483482
0.2025940337224384
0.19722285801480124
0.1790951400015259
0.1535820553902495
0.18580910963607233
0.2902113374532692
0.39662775616083007
0.4298619058518348
0.37917143511100937
0.2707408255130846
0.10994125276569772
-0.06596475165941862
-0.18916609445334553
-0.2566414892805371
-0.29491111619745175
-0.3080033569848173
-0.3130388342107271
-0.3063248645761807
-0.27476920729381243
-0.23381399252307927
-0.23515678644998858
-0.28953994048981463
-0.3313344014648661
-0.30061799038681614
-0.20662241550316623
-0.09231708247501334
0.016617074845502403
0.10507362478065153
0.16768139162279697
0.1926909285114824
0.19856565194171052
0.20091554131380177
0.2029297322041657
0.19957274738689249
0.19050888838025481
0.17842374303807124
0.1884946974898909
0.2576485847257191
0.3556725413900969
0.4026703288319219
0.37312886243991755
0.2843366140230411
0.13545433737697413
-0.03138780804150454
-0.16734569314106965
-0.24892042420080873
-0.2821545738918135
-0.28920424200808725
-0.2915541313801785
-0.2831616693369955
-0.25597009231708245
-0.2247501335164416
-0.22374303807125961
-0.2704051270313573
-0.3197528038452735
-0.3147173266193637
-0.240863660639353
-0.12941176470588234
-0.009567406729228655
0.09449912260624094
0.16617074845502405
0.19621576256961928
0.18513771267261767
0.16314946211947812
0.16096742198825056
0.17036697947661553
0.17439536125734342
0.17170977340352483
0.17607385366598
0.23952086671244371
0.33955901426718543
0.3895780880445563
0.362050812542916
0.278461890592813
0.14048981460288396
-0.027023727779049357
-0.16130312046997786
-0.24422064545662625
-0.2821545738918135
-0.28970778973067823
-0.29491111619745175
-0.29910734721904325
-0.28030823224231327
-0.24354924849317158
-0.23247119859617
-0.2761120012207217
-0.315053025101091
-0.29088273441672385
-0.22206454566262301
-0.1411612115663386
-0.035248340581368734
0.08174258030060273
0.16835278858625158
0.20695811398489355
0.19386587319752804
0.16835278858625158
0.16432440680552376
0.17405966277561608
0.17808804455634394
0.17170977340352483
0.17540245670252536
0.24556343938353548
0.3583581292439155
0.41676966506446933
0.3865568017090104
0.29356832227054247
0.15022507057297627
-0.014267185473411156
-0.14988937209124895
-0.23263904783703362
-0.2757763027389944
-0.29323262378881515
-0.28500801098649575
-0.26604104676890206
-0.25731288624399173
-0.2541237506675822
-0.2566414892805371
-0.29558251316090633
-0.33250934615091166
-0.31102464332036317
-0.23952086671244371
-0.14586099031052108
-0.03105210955977722
0.08308537422751203
0.16197451743343252
0.1965514610513466
0.19453727016098266
0.17842374303807124
0.17372396429388878
0.17573815518425268
0.17154192416266117
0.16331731136034178
0.17170977340352483
0.23868162050812544
0.3476157778286411
0.4160982681010147
0.40401312275883117
0.32881666285191125
0.19588006408789194
0.02652018005645838
-0.14048981460288396
-0.26671244373235675
-0.3197528038452735
-0.31438162813763637
-0.2881971465629053
-0.26335545891508355
-0.2579842832074464
-0.258655680170901
-0.25395590142671853
-0.2841687647821775
-0.3200885023270008
-0.305149919890135
-0.2452277409018082
-0.16633859769588769
-0.05622949568932631
0.06411841000991834
0.1492179751277943
0.18916609445334553
0.19588006408789194
0.18648050659952697
0.18916609445334553
0.19487296864270998
0.1874876020447089
0.1790951400015259
0.18580910963607233
0.24925612268253605
0.3388876173037308
0.3831998168917372
0.37296101319905395
0.3090104524299992
0.18681620508125427
0.030380712596322572
-0.1287403677424277
-0.2472419317921721
-0.2975967040512703
-0.2996108949416343
-0.28584725719081405
-0.27409781033035785
-0.2636911573968108
-0.24455634393835354
-0.23045700770580602
-0.2621805142290379
-0.3096818493934539
-0.30363927672236213
-0.24589913786526282
-0.17137407492179751
-0.06529335469596398
0.05790798809796292
0.1461966887922484
0.18983749141680015
0.20057984283207447
0.19890135042343787
0.18950179293507285
0.1696955825131609
0.16163881895170518
0.16768139162279697
0.1790951400015259
0.23448538948653389
0.31908140688181885
0.38185702296482793
0.3917601281757839
0.3388876173037308
0.22944991226062406
0.07435721370260165
-0.09349202716105898
-0.22374303807125961
-0.28567940794995034
-0.2915541313801785
-0.2771190966659037
-0.258655680170901
-0.23952086671244371
-0.223071641107805
-0.21132219424734877
-0.2438849469748989
-0.3019607843137255
-0.3103532463569085
-0.24589913786526282
-0.15324635690852215
-0.05673304341191729
0.03608758678568704
0.11665522240024415
0.17422751201647974
0.20796520943007551
0.21736476691844053
0.19050888838025481
0.15811398489356832
0.1475394827191577
0.15962462806134128
0.18513771267261767
0.24556343938353548
0.3291523613336385
0.3848783093003738
0.3781643396658274
0.31941710536354617
0.21803616388189515
0.07771419851987486
-0.07956054016937514
-0.21568627450980396
-0.28551155870908673
-0.29558251316090633
-0.28635080491340503
-0.27409781033035785
-0.2541237506675822
-0.23045700770580602
-0.22441443503471423
-0.269062333104448
-0.3291523613336385
-0.33485923552300295
-0.26755168993667505
-0.16398870832379644
-0.06730754558632791
0.025345235370412753
0.11665522240024415
0.18110933089188982
0.20796520943007551
0.20376897840848401
0.1884946974898909
0.17976653696498052
0.18043793392843518
0.1816128786144808
0.18446631570916305
0.23213550011444264
0.32143129625391015
0.38185702296482793
0.38991378652628367
0.34224460212100405
0.23817807278553446
0.09164568551155872
-0.060593575951781484
-0.18144502937361714
-0.26469825284199283
-0.31371023117418173
-0.32545967803463793
-0.3085069047074082
-0.2754406042572671
-0.2452277409018082
-0.24657053482871744
-0.2912184328984512
-0.33989471274891275
-0.3378805218585489
-0.27342641336690315
-0.18413061722743573
-0.0971847104600595
0.001846341649500267
0.09852750438696878
0.16231021591515984
0.19453727016098266
0.2106507972838941
0.2076295109483482
0.18245212481879908
0.16566720073243305
0.15828183413443195
0.16096742198825056
0.21467917906462194
0.3210955977721828
0.40535591668574045
0.4073701075761043
0.33687342641336687
0.2307927061875334
0.09852750438696878
-0.043976501106279084
-0.17070267795834287
-0.2798046845197223
-0.34056610971236745
-0.33519493400473027
-0.2965896086060883
-0.2566414892805371
-0.22072175173571373
-0.20695811398489355
-0.24321355001144426
-0.30045014114595253
-0.3147173266193637
-0.27141222247653923
-0.1935301747158007
-0.09617761501487754
0.010574502174410621
0.11094834821087966
0.17842374303807124
0.21736476691844053
0.2281071183337148
0.2187075608453498
0.2059510185397116
0.18278782330052643
0.15492484931715875
0.14988937209124895
0.2002441443503471
0.3091783016708629
0.408041504539559
0.41408407721065077
0.33989471274891275
0.23213550011444264
0.09651331349660487
-0.05522240024414436
-0.1837949187457084
-0.2687266346227206
-0.3083390554665446
-0.3096818493934539
-0.2912184328984512
-0.2687266346227206
-0.24791332875562672
-0.23448538948653389
-0.2603341725795376
-0.31337453269245436
-0.3355306324864576
-0.28953994048981463
-0.19621576256961928
-0.09416342412451362
0.008560311284046692
0.0955062180514229
0.15223926146334021
0.18110933089188982
0.19319447623407338
0.19638361181048294
0.2002441443503471
0.1790951400015259
0.14955367360952163
0.14888227664606699
0.20091554131380177
0.3039749752040894
0.3956206607156481
0.4103913939116503
0.35298695353627835
0.2561379415579461
0.12672617685206378
-0.019974059662775615
-0.15593194476234074
-0.2566414892805371
-0.31371023117418173
-0.3180743114366369
-0.29088273441672385
-0.2579842832074464
-0.22542153047989621
-0.2002441443503471
-0.21602197299153122
-0.286854352635996
-0.3419089036392767
-0.3059891660944533
-0.20628671702143891
-0.09617761501487754
0.011245899137865261
0.09164568551155872
0.1475394827191577
0.18614480811779963
0.19856565194171052
0.19588006408789194
0.1915159838254368
0.17758449683375294
0.16231021591515984
0.16096742198825056
0.1901731898985275
0.2771190966659037
0.37917143511100937
0.4144197756923781
0.3590295262073701
0.2566414892805371
0.13612573434042877
-0.00016784924086366064
-0.13394369420920116
-0.23179980163271532
-0.28148317692835884
-0.30296787975890743
-0.31068894483863574
-0.29826810101472495
-0.2638590066376745
-0.22844281681544215
-0.23381399252307927
-0.3059891660944533
-0.36171511406118867
-0.32780956740672923
-0.22844281681544215
-0.12034790569924468
-0.009231708247501335
0.08946364538033112
0.15677119096665904
0.18782330052643625
0.19218738078889144
0.19755855649652856
0.20393682764934767
0.18782330052643625
0.15458915083543145
0.14468604562447548
0.18245212481879908
0.2818188754100862
0.3875638971541924
0.4285191119249256
0.38924238956282897
0.28853284504463267
0.13931486991683834
-0.022995345998321506
-0.16298161287861446
-0.24992751964599072
-0.2834973678187228
-0.30061799038681614
-0.30666056305790795
-0.2848401617456321
-0.24892042420080873
-0.21736476691844053
-0.2183718623636225
-0.27946898603799497
-0.33922331578545817
-0.31438162813763637
-0.22055390249485005
-0.11313038834210726
-0.004196231021591517
0.0891279468986038
0.14720378423743039
0.18580910963607233
0.203265430685893
0.20527962157625693
0.20057984283207447
0.18782330052643625
0.17170977340352483
0.15492484931715875
0.15727473868925002
0.2331425955596246
0.3476157778286411
0.4130769817654688
0.3925993743801023
0.2912184328984512
0.1414969100480659
-0.011581597619592583
-0.14351110093842984
-0.24019226367589838
-0.29625391012436103
-0.3180743114366369
-0.31740291447318225
-0.29088273441672385
-0.2519417105363546
-0.22105745021744103
-0.2212252994583047
-0.2798046845197223
-0.3377126726176852
-0.31102464332036317
-0.22172884718089572
-0.12236209658960862
-0.01560997940032044
0.09047074082551307
0.16566720073243305
0.19588006408789194
0.19118028534370946
0.17943083848325322
0.18010223544670784
0.18883039597161821
0.1893339436942092
0.16700999465934235
0.16029602502479592
0.23280689707789726
0.3409018081940947
0.3946135652704661
0.37531090257114513
0.30061799038681614
0.1777523460746166
0.027695124742504008
-0.11464103150988021
-0.2183718623636225
-0.2754406042572671
-0.3076676585030899
-0.3217669947356374
-0.3009536888685435
-0.2603341725795376
-0.2264286259250782
-0.22105745021744103
-0.2640268558785382
-0.3098496986343175
-0.30565346761272594
-0.25261310749980925
-0.15828183413443195
-0.035751888303959714
0.0767071030746929
0.15156786449988555
0.17540245670252536
0.17204547188525215
0.1733882658121614
0.18446631570916305
0.19050888838025481
0.1884946974898909
0.1733882658121614
0.17238117036697947
0.24220645456626225
0.35265125505455097
0.41475547417410535
0.390249485008011
0.3002822919050888
0.1696955825131609
0.02366674296177615
-0.11027695124742502
-0.21165789272907606
-0.26738384069581134
-0.28752574959945065
-0.2861829556725414
-0.2823224231326772
-0.2836652170595865
-0.258655680170901
-0.2297856107423514
-0.2613412680247196
-0.3184100099183642
-0.3365377279316396
-0.28719005111772333
-0.1874876020447089
-0.057236591134508276
0.06831464103150987
0.1512321660181582
0.18513771267261767
0.1915159838254368
0.19034103913939115
0.1915159838254368
0.19789425497825588
0.19386587319752804
0.17305256733043411
0.16231021591515984
0.22273594262607763
0.3311665522240024
0.4066987106126497
0.40468451972228575
0.33284504463263903
0.2099794003204395
0.04548714427405204
-0.12169069962615398
-0.24254215304798965
-0.2996108949416343
-0.3120317387655451
-0.3009536888685435
-0.29491111619745175
-0.28836499580376895
-0.2583199816891737
-0.2187075608453498
-0.23549248493171587
-0.29625391012436103
-0.32310978866254675
-0.2761120012207217
-0.17070267795834287
-0.04313725490196078
0.07402151522087433
0.1535820553902495
0.18580910963607233
0.18883039597161821
0.19722285801480124
0.20108339055466543
0.18513771267261767
0.16768139162279697
0.16231021591515984
0.17170977340352483
0.22139314869916837
0.315053025101091
0.3890745403219653
0.38924238956282897
0.32814526588845655
0.22072175173571373
0.06428625925078202
-0.09953459983215075
-0.21736476691844053
-0.2787975890745403
-0.29642175936522464
-0.2928969253070878
-0.29188982986190587
-0.2848401617456321
-0.2512703135728999
-0.22172884718089572
-0.2472419317921721
-0.30296787975890743
-0.32780956740672923
-0.2928969253070878
-0.19554436560616464
-0.0703288319218738
0.04783703364614328
0.13746852826733807
0.19420157167925536
0.21803616388189515
0.20964370183871214
0.18631265735866331
0.17170977340352483
0.16768139162279697
0.16298161287861446
0.16566720073243305
0.2012512397955291
0.2845044632639048
0.37447165636682683
0.39914549477378497
0.350133516441596
0.2505989166094453
0.09987029831387809
-0.07066453040360113
-0.20527962157625693
-0.28030823224231327
-0.30061799038681614
-0.29625391012436103
-0.29356832227054247
-0.28584725719081405
-0.25395590142671853
-0.22005035477225907
-0.23247119859617
-0.2823224231326772
-0.3080033569848173
-0.27359426260776687
-0.19856565194171052
-0.10557717250324253
0.008560311284046692
0.11396963454642556
0.18614480811779963
0.21803616388189515
0.19957274738689249
0.16633859769588769
0.1569390402075227
0.1708705271992065
0.18178072785534446
0.17808804455634394
0.20527962157625693
0.2903791866941329
0.3828641184100099
0.41458762493324175
0.36977187762264435
0.26150911726558324
0.10054169527733271
-0.06999313344014649
-0.19218738078889144
-0.2608377203021286
-0.29088273441672385
-0.2975967040512703
-0.2915541313801785
-0.26771953917753877
-0.23884946974898907
-0.22407873655298696
-0.24472419317921723
-0.29423971923399705
-0.31706721599145493
-0.2840009155413138
-0.21115434500648506
-0.1079270618753338
0.011917296101319903
0.11229114213778896
0.17372396429388878
0.20192263675898375
0.19957274738689249
0.18513771267261767
0.18362706950484473
0.1915159838254368
0.18966964217593651
0.1807736324101625
0.20695811398489355
0.28920424200808725
0.37715724422064545
0.40535591668574045
0.36540779736018913
0.267048142214084
0.12135500114442664
-0.04414435034714275
-0.18815899900816355
-0.278461890592813
-0.3130388342107271
-0.3147173266193637
-0.3002822919050888
-0.2796368352788586
-0.26738384069581134
-0.2569771877622644
-0.26150911726558324
-0.29491111619745175
-0.31068894483863574
-0.2761120012207217
-0.20091554131380177
-0.10356298161287861
0.011581597619592583
0.11531242847333485
0.18446631570916305
0.21602197299153122
0.21199359121080338
0.18782330052643625
0.17943083848325322
0.18245212481879908
0.175066758220798
0.16197451743343252
0.18983749141680015
0.28719005111772333
0.3764858472571908
0.39327077134355687
0.351644159609369
0.26671244373235675
0.1364614328221561
-0.020309758144502935
-0.17405966277561608
-0.28148317692835884
-0.31236743724727245
-0.3026321812771801
-0.286854352635996
-0.2613412680247196
-0.24052796215762567
-0.2272678721293965
-0.23263904783703362
-0.2787975890745403
-0.3147173266193637
-0.28853284504463267
-0.2203860532539864
-0.12941176470588234
-0.013931486991683832
0.09517051956969558
0.16835278858625158
0.20091554131380177
0.2025940337224384
0.19504081788357364
0.18698405432211795
0.16633859769588769
0.1535820553902495
0.15895323109788664
0.1965514610513466
0.28635080491340503
0.3657434958419165
0.38588540474555577
0.3499656672007324
0.27309071488517583
0.14351110093842984
-0.012588693064774548
-0.1586175326161593
-0.26100556954299226
-0.3002822919050888
-0.3009536888685435
-0.2841687647821775
-0.2640268558785382
-0.25597009231708245
-0.24992751964599072
-0.24892042420080873
-0.2848401617456321
-0.3184100099183642
-0.29423971923399705
-0.21971465629053175
-0.12471198596169988
-0.023834592202639806
0.059250782024872196
0.12034790569924468
0.16432440680552376
0.18715190356298161
0.19118028534370946
0.17036697947661553
0.1468680857557031
0.14183260852979326
0.15794613565270463
0.2012512397955291
0.29054703593499653
0.37749294270237277
0.40099183642328523
0.36037232013427933
0.27510490577553975
0.1555962462806134
0.010406652933546959
-0.13444724193179217
-0.23801022354467077
-0.28551155870908673
-0.29457541771572443
-0.27779049362935837
-0.24757763027389945
-0.22072175173571373
-0.20225833524071107
-0.21937895780880443
-0.29222552834363313
-0.34493018997482255
-0.3167315175097276
-0.23112840466926068
-0.13075455863279162
-0.041123064011596856
0.04548714427405204
0.1253833829251545
0.18144502937361714
0.20662241550316623
0.20527962157625693
0.1918516823071641
0.17943083848325322
0.17573815518425268
0.17070267795834287
0.18648050659952697
0.2636911573968108
0.3583581292439155
0.39662775616083007
0.37447165636682683
0.3039749752040894
0.18178072785534446
0.026352330815594724
-0.1270618753337911
-0.23649958037689783
-0.29793240253299763
-0.32730601968413825
-0.3187457084000916
-0.2808117799649042
-0.24119935912108034
-0.21904325932707713
-0.2391851682307164
-0.30363927672236213
-0.35063706416418705
-0.32243839169909205
-0.23549248493171587
-0.13344014648661018
-0.033066300450141146
0.056900892652780956
0.13528648813611044
0.18580910963607233
0.19957274738689249
0.19588006408789194
0.18782330052643625
0.17573815518425268
0.16902418554970625
0.1710383764400702
0.18580910963607233
0.25227740901808193
0.3556725413900969
0.41676966506446933
0.38991378652628367
0.30061799038681614
0.18648050659952697
0.04917982757305257
-0.092484931715877
-0.20091554131380177
-0.27913328755626765
-0.3163958190280003
-0.3064927138170443
-0.27174792095826655
-0.23985656519417106
-0.21971465629053175
-0.2281071183337148
-0.28148317692835884
-0.3284809643701838
-0.3130388342107271
-0.24220645456626225
-0.1512321660181582
-0.051865415426871134
0.04078736552986953
0.1240405889982452
0.18782330052643625
0.2158541237506676
0.21568627450980396
0.21199359121080338
0.2024261844815747
0.17573815518425268
0.14485389486533912
0.1508964675364309
0.2247501335164416
0.3311665522240024
0.4006561379415579
0.38722819867246505
0.3069962615396353
0.18950179293507285
0.04548714427405204
-0.10222018768596933
-0.2150148775463493
-0.29054703593499653
-0.32445258258945603
-0.31404592965590905
-0.28886854352635993
-0.26637674525062943
-0.2341496910048066
-0.21467917906462194
-0.2640268558785382
-0.3291523613336385
-0.31908140688181885
-0.2391851682307164
-0.14552529182879376
-0.043808651865415424
0.07083237964446479
0.14821087968261232
0.17305256733043411
0.18010223544670784
0.18580910963607233
0.19319447623407338
0.18983749141680015
0.16298161287861446
0.13192950331883724
0.13612573434042877
0.21635767147325857
0.3375448233768215
0.4160982681010147
0.40401312275883117
0.32277409018081943
0.20796520943007551
0.06529335469596398
-0.0852674143587396
-0.20427252613107502
-0.27174792095826655
-0.3091783016708629
-0.31438162813763637
-0.2912184328984512
-0.2613412680247196
-0.2297856107423514
-0.21232928969253068
-0.24489204242008086
-0.31236743724727245
-0.343251697566186
-0.2928969253070878
-0.1884946974898909
-0.07167162584878309
0.04213015945677882
0.12068360418097199
0.16466010528725106
0.1915159838254368
0.20360112916762035
0.20695811398489355
0.2025940337224384
0.18110933089188982
0.15895323109788664
0.15962462806134128
0.22206454566262301
0.33687342641336687
0.4127412832837415
0.39494926375219347
0.31253528648813605
0.2012512397955291
0.06529335469596398
-0.07469291218432898
-0.19285877775234606
-0.27141222247653923
-0.30128938735027083
-0.3016250858319981
-0.29306477454795143
-0.2687266346227206
-0.2366674296177615
-0.21770046540016783
-0.24052796215762567
-0.3069962615396353
-0.34123750667582203
-0.29088273441672385
-0.18815899900816355
-0.0750286106660563
0.037094682230869
0.11934081025406272
0.16331731136034178
0.1884946974898909
0.2046082246128023
0.21467917906462194
0.20444037537193865
0.175066758220798
0.14082551308461125
0.13411154345006485
0.19890135042343787
0.31270313572899977
0.40199893186846725
0.42281223773556104
0.37514305333028153
0.25731288624399173
0.08375677119096665
-0.08073548485542076
-0.19252307927061874
-0.25261310749980925
-0.27946898603799497
-0.3022964827954528
-0.3111924925612268
-0.286854352635996
-0.2505989166094453
-0.22508583199816892
-0.24203860532539861
-0.30128938735027083
-0.33250934615091166
-0.2902113374532692
-0.2029297322041657
-0.0908064393072404
0.030380712596322572
0.11497672999160755
0.1525749599450675
0.17640955214770732
0.19218738078889144
0.20057984283207447
0.203265430685893
0.19453727016098266
0.17708094911116198
0.15626764324406803
0.18094148165102614
0.27779049362935837
0.37245746547646297
0.3936064698252842
0.34224460212100405
0.22710002288853282
0.07301441977569237
-0.06730754558632791
-0.17473105973907072
-0.2452277409018082
-0.27443350881208517
-0.29088273441672385
-0.2915541313801785
-0.27006942854962995
-0.23884946974898907
-0.21434348058289462
-0.23112840466926068
-0.2975967040512703
-0.33922331578545817
-0.2950789654383154
-0.19386587319752804
-0.07939269092851148
0.03508049134050507
0.12806897077897306
0.18413061722743573
0.19722285801480124
0.18110933089188982
0.1777523460746166
0.1918516823071641
0.19588006408789194
