EMG Sensor 0
0.0
0.0
0.0
0.0
0.0
0.0
0.0
0.0
0.0
0.0
0.0
0.0
0.0
0.0
0.0
0.0
0.0
0.0
0.0
0.0
0.0
0.0
0.0
0.0
0.0
0.0
0.0
0.0
0.0
0.0
0.0
0.0
0.0
0.0
0.0
0.0
0.0
0.0
0.0
0.0
0.0
0.0
0.0
0.0
0.0
0.0
0.0
0.0
0.0
0.0
0.0
0.0
0.0
0.0
0.0
0.0
0.0
0.0
0.0
0.0
0.0
0.0
0.0
0.0
0.0
0.0
0.0
0.0
0.0
0.0
0.0
0.0
0.0
0.0
0.0
0.0
0.0
0.0
0.0
0.0
0.0
0.0
0.0
0.0
0.0
0.0
0.0
0.0
0.0
0.0
0.0
0.0
0.0
0.0
0.0
0.0
0.0
0.0
0.0
0.0
0.0
0.0
0.0
0.0
0.0
0.0
0.0
0.0
0.0
0.0
0.0
0.0
0.0
0.0
0.0
0.0
0.0
0.0
0.0
0.0
0.0
0.0
0.0
0.0
0.0
0.0
0.0
0.0
0.0
0.0
0.0
0.0
0.0
0.0
0.0
0.0
0.0
0.0
0.0
0.0
0.0
0.0
0.0
0.0
0.0
0.0
0.0
0.0
0.0
0.0
0.0
0.0
0.0
0.0
0.0
0.0
0.0
0.0
0.0
0.0
0.0
0.0
0.0
0.0
0.0
0.0
0.0
0.0
0.0
0.0
0.0
0.0
0.0
0.0
0.0
0.0
0.0
0.0
0.0
0.0
0.0
0.0
0.0
0.0
0.0
0.0
0.0
0.0
0.0
0.0
0.0
0.0
0.0
0.0
0.0
0.0
0.0
0.0
0.0
0.0
0.0
0.0
0.0
0.0
0.0
0.0
0.0
0.0
0.0
0.0
0.0
0.0
0.0
0.0
0.0
0.0
0.0
0.0
0.0
0.0
0.0
0.0
0.0
0.0
0.0
0.0
0.0
0.0
0.0
0.0
0.0
0.0
0.0
0.0
0.0
0.0
0.0
0.0
0.0
0.0
0.0
0.0
0.0
0.0
0.0
0.0
0.0
0.0
0.0
0.0
0.0
0.0
0.0
0.0
0.0
0.0
0.0
0.0
0.0
0.0
0.0
0.0
0.0
0.0
0.0
0.0
0.0
0.0
0.0
0.0
0.0
0.0
0.0
0.0
0.0
0.0
0.0
0.0
0.0
0.0
0.0
0.0
0.0
0.0
0.0
0.0
0.0
0.0
0.0
0.0
0.0
0.0
0.0
0.0
0.0
0.0
0.0
0.0
0.0
0.0
0.0
0.0
0.0
0.0
0.0
0.0
0.0
0.0
0.0
0.0
0.0
0.0
0.0
0.0
0.0
0.0
0.0
0.0
0.0
0.0
0.0
0.0
0.0
0.0
0.0
0.0
0.0
0.0
0.0
0.0
0.0
0.0
0.0
0.0
0.0
0.0
0.0
0.0
0.0
0.0
0.0
0.0
0.0
0.0
0.0
0.0
0.0
0.0
0.0
0.0
0.0
0.0
0.0
0.0
0.0
0.0
0.0
0.0
0.0
0.0
0.0
0.0
0.0
0.0
0.0
0.0
0.0
0.0
0.0
0.0
0.0
0.0
0.0
0.0
0.0
0.0
0.0
0.0
0.0
0.0
0.0
0.0
0.0
0.0
0.0
0.0
0.0
0.0
0.0
0.0
0.0
0.0
0.0
0.0
0.0
0.0
0.0
0.0
0.0
0.0
0.0
0.0
0.0
0.0
0.0
0.0
0.0
0.0
-0.03189135576409552
-0.020477607385366595
-0.016449225604638743
-0.01376363775082017
-0.009063859006637675
-0.0003356984817273213
0.006713969634546426
0.007049668116273747
0.011078049897001601
0.0157778286411841
0.017792019531548024
0.01846341649500267
0.017120622568093383
0.017120622568093383
0.021149004348821242
0.024505989166094453
0.02349889372091249
0.011749446860456245
-0.005706874189364461
-0.016449225604638743
-0.021820401312275882
-0.021149004348821242
-0.01913481345845731
-0.016449225604638743
-0.01376363775082017
-0.009063859006637675
-0.0010070954451819635
0.007049668116273747
0.007049668116273747
0.011078049897001601
0.0157778286411841
0.017120622568093383
0.017120622568093383
0.0157778286411841
0.016449225604638743
0.021149004348821242
0.023834592202639806
0.022491798275730522
0.010406652933546959
-0.006713969634546426
-0.016784924086366067
-0.021149004348821242
-0.021820401312275882
-0.01913481345845731
-0.015106431677729458
-0.013092240787365528
-0.008392462043183033
0.0010070954451819635
0.008728160524910353
0.007721065079728388
0.011749446860456245
0.017120622568093383
0.01846341649500267
0.01846341649500267
0.017120622568093383
0.017120622568093383
0.022156099794003202
0.025177386129549097
0.023163195239185166
0.010406652933546959
-0.005706874189364461
-0.016449225604638743
-0.020477607385366595
-0.020813305867093918
-0.01846341649500267
-0.015442130159456776
-0.013092240787365528
-0.008392462043183033
0.0003356984817273213
0.007721065079728388
0.007721065079728388
0.012420843823910887
0.0157778286411841
0.017792019531548024
0.017792019531548024
0.0157778286411841
0.017120622568093383
0.021820401312275882
0.024841687647821773
0.023163195239185166
0.010406652933546959
-0.006378271152819104
-0.016449225604638743
-0.021149004348821242
-0.021149004348821242
-0.01913481345845731
-0.016449225604638743
-0.01376363775082017
-0.008392462043183033
0.0006713969634546426
0.007721065079728388
0.007049668116273747
0.010406652933546959
0.0157778286411841
0.017792019531548024
0.017792019531548024
0.016784924086366067
0.017120622568093383
0.021820401312275882
0.023834592202639806
0.022491798275730522
0.009063859006637675
-0.008392462043183033
-0.017792019531548024
-0.021149004348821242
-0.021820401312275882
-0.01913481345845731
-0.016449225604638743
-0.01376363775082017
-0.008392462043183033
0.0010070954451819635
0.007721065079728388
0.007721065079728388
0.011749446860456245
0.016449225604638743
0.01846341649500267
0.01846341649500267
0.016784924086366067
0.017792019531548024
0.021149004348821242
0.025177386129549097
0.023834592202639806
0.009735255970092317
-0.007385366598001068
-0.017120622568093383
-0.020477607385366595
-0.021149004348821242
-0.01913481345845731
-0.016449225604638743
-0.013092240787365528
-0.007721065079728388
0.0010070954451819635
0.008728160524910353
0.007721065079728388
0.011749446860456245
0.016449225604638743
0.017792019531548024
0.017792019531548024
0.017120622568093383
0.017120622568093383
0.021820401312275882
0.025177386129549097
0.023163195239185166
0.007721065079728388
-0.008392462043183033
-0.017792019531548024
-0.020477607385366595
-0.021149004348821242
-0.01812771801327535
-0.0157778286411841
-0.01376363775082017
-0.008392462043183033
0.0010070954451819635
0.007721065079728388
0.007721065079728388
0.012420843823910887
0.016784924086366067
0.01812771801327535
0.017792019531548024
0.0157778286411841
0.017792019531548024
0.022491798275730522
0.02584878309300374
0.02349889372091249
0.009735255970092317
-0.008392462043183033
-0.017792019531548024
-0.020477607385366595
-0.021820401312275882
-0.019470511940184634
-0.016449225604638743
-0.01376363775082017
-0.007049668116273747
0.0016784924086366065
0.007049668116273747
0.006713969634546426
0.012420843823910887
0.016113527122911416
0.017120622568093383
0.017120622568093383
0.017120622568093383
0.017120622568093383
0.022491798275730522
0.02652018005645838
0.023834592202639806
0.010406652933546959
-0.007721065079728388
-0.01846341649500267
-0.021820401312275882
-0.022491798275730522
-0.019806210421911954
-0.017792019531548024
-0.014435034714274816
-0.008392462043183033
0.0016784924086366065
0.005706874189364461
0.0050354772259098195
0.011413748378728923
0.0157778286411841
0.01812771801327535
0.01846341649500267
0.017120622568093383
0.01846341649500267
0.024505989166094453
0.027862973983367664
0.025177386129549097
0.011749446860456245
-0.007049668116273747
-0.01913481345845731
-0.022827496757457846
-0.022491798275730522
-0.021149004348821242
-0.017792019531548024
-0.014099336232547494
-0.007721065079728388
0.0030212863355458916
0.0050354772259098195
0.0050354772259098195
0.011413748378728923
0.017120622568093383
0.01913481345845731
0.017792019531548024
0.017792019531548024
0.019806210421911954
0.025177386129549097
0.027862973983367664
0.025177386129549097
0.014099336232547494
-0.005706874189364461
-0.017120622568093383
-0.021149004348821242
-0.020477607385366595
-0.01846341649500267
-0.015106431677729458
-0.011749446860456245
-0.003692683299000534
0.0023498893720912484
0.0006713969634546426
0.0006713969634546426
0.007385366598001068
0.011749446860456245
0.015106431677729458
0.0157778286411841
0.015106431677729458
0.017120622568093383
0.023834592202639806
0.02752727550164034
0.02584878309300374
0.01846341649500267
0.010406652933546959
0.0023498893720912484
-0.0030212863355458916
-0.005706874189364461
-0.005706874189364461
-0.007049668116273747
-0.011749446860456245
-0.017792019531548024
-0.020477607385366595
-0.021820401312275882
-0.017120622568093383
-0.007049668116273747
0.0023498893720912484
0.006378271152819104
0.007721065079728388
0.008392462043183033
0.013092240787365528
0.021149004348821242
0.027862973983367664
0.02652018005645838
0.019806210421911954
0.010406652933546959
0.002014190890363927
-0.0030212863355458916
-0.0050354772259098195
-0.005706874189364461
-0.006378271152819104
-0.012085145342183566
-0.017792019531548024
-0.020477607385366595
-0.021820401312275882
-0.017792019531548024
-0.0050354772259098195
0.003692683299000534
0.008392462043183033
0.011413748378728923
0.011749446860456245
0.017456321049820707
0.02652018005645838
0.03189135576409552
0.03054856183718624
0.022491798275730522
0.012756542305638208
0.0030212863355458916
-0.0016784924086366065
-0.004364080262455177
-0.005706874189364461
-0.007049668116273747
-0.012420843823910887
-0.01846341649500267
-0.020477607385366595
-0.021820401312275882
-0.017792019531548024
-0.003356984817273213
0.0050354772259098195
0.009063859006637675
0.011749446860456245
0.012420843823910887
0.01846341649500267
0.029205767910276948
0.033234149691004806
0.030212863355458915
0.022491798275730522
0.012420843823910887
0.003356984817273213
-0.0016784924086366065
-0.004364080262455177
-0.005706874189364461
-0.006378271152819104
-0.012420843823910887
-0.017792019531548024
-0.020477607385366595
-0.022491798275730522
-0.017792019531548024
-0.004364080262455177
0.0050354772259098195
0.009399557488364994
0.011749446860456245
0.012756542305638208
0.017120622568093383
0.027862973983367664
0.033234149691004806
0.03121995880064088
0.023163195239185166
0.012420843823910887
0.0030212863355458916
-0.0030212863355458916
-0.005706874189364461
-0.005706874189364461
-0.007049668116273747
-0.01376363775082017
-0.019806210421911954
-0.022491798275730522
-0.021820401312275882
-0.017120622568093383
-0.003692683299000534
0.0050354772259098195
0.010406652933546959
0.012420843823910887
0.013092240787365528
0.01913481345845731
0.027862973983367664
0.033234149691004806
0.029205767910276948
0.021820401312275882
0.011078049897001601
0.0010070954451819635
-0.008392462043183033
-0.012085145342183566
-0.011413748378728923
-0.011749446860456245
-0.009735255970092317
-0.011749446860456245
-0.015106431677729458
-0.015442130159456776
-0.011078049897001601
-0.0003356984817273213
0.007721065079728388
0.011749446860456245
0.013092240787365528
0.013092240787365528
0.017120622568093383
0.026184481574731057
0.029205767910276948
0.026184481574731057
0.01846341649500267
0.003356984817273213
-0.011078049897001601
-0.017792019531548024
-0.01913481345845731
-0.01846341649500267
-0.016449225604638743
-0.012420843823910887
-0.0030212863355458916
0.0010070954451819635
-0.0023498893720912484
0.0010070954451819635
0.009063859006637675
0.014435034714274816
0.017120622568093383
0.0157778286411841
0.0157778286411841
0.01846341649500267
0.023834592202639806
0.02652018005645838
0.01913481345845731
-0.0016784924086366065
-0.01913481345845731
-0.02652018005645838
-0.02853437094682231
-0.02719157701991302
-0.024505989166094453
-0.020813305867093918
-0.015106431677729458
-0.0050354772259098195
0.006378271152819104
0.01846341649500267
0.02584878309300374
0.02853437094682231
0.029205767910276948
0.02887006942854963
0.02652018005645838
0.023834592202639806
0.021820401312275882
0.011078049897001601
-0.005706874189364461
-0.023163195239185166
1.1746089875638972
9.48918898298619
10.971633478294041
10.97297627222095
10.973647669184405
10.97297627222095
10.97297627222095
10.97297627222095
10.567452506294346
-5.8606240939955745
-10.982711528191043
-10.987411306935224
-10.988418402380407
-10.988754100862135
-10.98908979934386
-10.990096894789042
-10.98942549782559
-10.98942549782559
3.5644464789806976
10.964919508659495
10.972304875257496
10.97297627222095
10.97431906614786
10.97566186007477
10.97431906614786
10.97431906614786
10.97297627222095
10.97297627222095
10.97431906614786
4.961287861448081
-10.940749217975128
-10.986068513008314
-10.98808270389868
-10.988754100862135
-10.98942549782559
-10.98942549782559
-10.989761196307317
-10.989761196307317
-10.98942549782559
-10.98942549782559
2.7859616998550387
10.964919508659495
10.97297627222095
10.97297627222095
10.973647669184405
10.97431906614786
10.97297627222095
10.97297627222095
10.97431906614786
6.869398031586174
-8.308537422751202
-10.983718623636225
-10.987747005416953
-10.988754100862135
-10.98908979934386
-10.98942549782559
-10.98942549782559
-10.989761196307317
-10.989761196307317
-10.989761196307317
-10.989761196307317
-0.6119783321889066
10.951491569390402
10.971633478294041
10.97297627222095
10.97297627222095
10.97431906614786
10.97297627222095
10.97297627222095
10.97431906614786
7.876493476768139
-3.8413977264057375
-10.973983367666131
-10.98673990997177
-10.988418402380407
-10.98908979934386
-10.98942549782559
-10.98942549782559
-10.98942549782559
-10.989761196307317
-10.98942549782559
-10.710124361028457
2.5778286411841
10.963576714732586
10.971633478294041
10.972304875257496
10.97297627222095
10.97297627222095
10.97297627222095
10.97297627222095
10.973647669184405
10.97431906614786
5.416495002670329
-5.6675974670023646
-10.978347447928588
-10.987075608453498
-10.98808270389868
-10.988754100862135
-10.989761196307317
-10.98942549782559
-10.98908979934386
-10.98908979934386
-6.181887541008622
5.035141527428092
10.967605096513314
10.97297627222095
10.97297627222095
10.97431906614786
10.97431906614786
10.97431906614786
10.97297627222095
10.97431906614786
10.97431906614786
8.911787594415198
-0.6247348744945449
-8.615030136568246
-10.983382925154496
-10.987075608453498
-10.988754100862135
-9.04908827344167
-6.413519493400473
-3.9562066071564814
-1.8157930876630808
0.06680399786373693
1.787594415197986
6.360479133287556
10.966262302586404
10.971633478294041
10.97297627222095
10.97297627222095
10.97431906614786
10.97297627222095
10.97297627222095
9.41399252307927
3.9676203555352094
-2.2589150835431444
-5.332570382238499
-3.9118944075684747
-2.524116884107728
-1.5015793087663079
-0.49179827573052565
0.37027542534523533
1.1114976729991606
1.7493247882810712
2.283756771190966
2.7309071488517587
3.096818493934539
3.3861905851834897
3.860868238345922
5.454093232623789
6.388677805752651
5.991210803387503
5.155992980849927
4.056916151674677
2.8262455176623176
2.5912565804531926
2.726543068589303
2.7215075913633933
2.7174792095826654
2.695323109788662
2.6476539253833824
2.5858854047455555
2.510688944838636
2.4247501335164414
2.328068970778973
2.2253452353704124
2.115907530327306
2.002441443503471
1.8862897688258184
1.7701380941481648
1.6553292133974211
1.5421988250553138
1.4310826276035706
1.3223163195239185
1.2162355992980851
1.115190356298161
1.0175020981155107
0.9255207141222248
0.8375677119096665
0.7566643778133821
0.6801251239795528
0.6059357595178149
0.5367818722819867
0.47199206530861376
0.4119020370794232
0.35751888303959717
0.3064927138170443
0.2581521324483101
0.21551842526894024
0.17557030594338902
0.1406576638437476
0.11044480048828872
0.08493171587701229
0.061432822156099784
0.041962310215915156
0.025177386129549097
0.010406652933546959
-0.0003356984817273213
-0.009735255970092317
-0.017120622568093383
-0.022156099794003202
-0.02719157701991302
-0.029877164873731592
-0.03390554665445944
-0.03659113450827802
-0.0379339284351873
-0.0379339284351873
-0.03927672236209659
-0.03927672236209659
-0.03927672236209659
-0.03961242084382391
-0.03927672236209659
-0.03659113450827802
-0.03390554665445944
-0.03054856183718624
-0.02652018005645838
-0.023163195239185166
-0.01913481345845731
-0.015106431677729458
-0.009735255970092317
-0.005706874189364461
-0.0016784924086366065
0.0023498893720912484
0.0050354772259098195
0.007049668116273747
0.009735255970092317
0.011749446860456245
0.012420843823910887
0.014435034714274816
0.01376363775082017
0.014435034714274816
0.014435034714274816
0.014435034714274816
0.0157778286411841
0.017120622568093383
0.01846341649500267
0.01913481345845731
0.019806210421911954
0.019806210421911954
0.021820401312275882
0.022491798275730522
0.02349889372091249
0.025177386129549097
0.02652018005645838
0.02719157701991302
0.02652018005645838
0.02584878309300374
0.025177386129549097
0.025177386129549097
0.024505989166094453
0.02349889372091249
0.022156099794003202
0.021149004348821242
0.019806210421911954
0.01846341649500267
0.01846341649500267
0.01846341649500267
0.01846341649500267
0.01846341649500267
0.01846341649500267
0.01846341649500267
0.019470511940184634
0.01846341649500267
0.019806210421911954
0.019806210421911954
0.019806210421911954
0.019806210421911954
0.01846341649500267
0.01846341649500267
0.01913481345845731
0.017792019531548024
0.017120622568093383
0.0157778286411841
0.0157778286411841
0.015442130159456776
0.014099336232547494
0.014435034714274816
0.014435034714274816
0.014435034714274816
0.014099336232547494
0.013092240787365528
0.013092240787365528
0.015106431677729458
0.014435034714274816
0.014435034714274816
0.014435034714274816
0.014435034714274816
0.014435034714274816
0.01376363775082017
0.014435034714274816
0.014099336232547494
0.01376363775082017
0.01376363775082017
0.013092240787365528
0.012420843823910887
0.011749446860456245
0.011413748378728923
0.011413748378728923
0.011413748378728923
0.011078049897001601
0.011413748378728923
0.011078049897001601
0.011749446860456245
0.011749446860456245
0.011749446860456245
0.011413748378728923
0.011078049897001601
0.011749446860456245
0.011749446860456245
0.010406652933546959
0.011078049897001601
0.010406652933546959
0.011078049897001601
0.010406652933546959
0.010406652933546959
0.010406652933546959
0.010070954451819639
0.010406652933546959
0.010406652933546959
0.010406652933546959
0.010070954451819639
0.010406652933546959
0.010070954451819639
0.010406652933546959
0.010406652933546959
0.010406652933546959
0.010406652933546959
0.010406652933546959
0.010406652933546959
0.010070954451819639
0.009735255970092317
0.009063859006637675
0.009735255970092317
0.010406652933546959
0.010406652933546959
0.009063859006637675
0.009063859006637675
0.009735255970092317
0.009063859006637675
0.009063859006637675
0.009063859006637675
0.009399557488364994
0.009063859006637675
0.008392462043183033
0.008728160524910353
0.008728160524910353
0.008392462043183033
0.009063859006637675
0.008392462043183033
0.008392462043183033
0.008392462043183033
0.009063859006637675
0.009063859006637675
0.009063859006637675
0.009063859006637675
0.008728160524910353
0.008728160524910353
0.008392462043183033
0.008392462043183033
0.008728160524910353
0.007721065079728388
0.007721065079728388
0.007721065079728388
0.007721065079728388
0.007721065079728388
0.007721065079728388
0.007721065079728388
0.007721065079728388
0.007721065079728388
0.007721065079728388
0.007721065079728388
0.007049668116273747
0.007049668116273747
0.007049668116273747
0.007049668116273747
0.007049668116273747
0.007049668116273747
0.007721065079728388
0.007049668116273747
0.007049668116273747
0.007721065079728388
0.007049668116273747
0.006378271152819104
0.007049668116273747
0.007721065079728388
0.007721065079728388
0.007385366598001068
0.006378271152819104
0.007049668116273747
0.007385366598001068
0.006713969634546426
0.007721065079728388
0.007049668116273747
0.007049668116273747
0.007721065079728388
0.007049668116273747
0.007721065079728388
0.007721065079728388
0.007721065079728388
0.006378271152819104
0.006378271152819104
0.007721065079728388
0.007049668116273747
0.006378271152819104
0.007049668116273747
0.006378271152819104
0.006378271152819104
0.006378271152819104
0.007049668116273747
0.006378271152819104
0.006378271152819104
0.006042572671091783
0.006378271152819104
0.005706874189364461
0.006378271152819104
0.006378271152819104
0.0050354772259098195
0.006378271152819104
0.006378271152819104
0.006378271152819104
0.006378271152819104
0.006378271152819104
0.006378271152819104
0.005706874189364461
0.005706874189364461
0.0050354772259098195
0.005706874189364461
0.006378271152819104
0.0050354772259098195
0.006378271152819104
0.006378271152819104
0.006378271152819104
0.006378271152819104
0.006378271152819104
0.006378271152819104
0.006378271152819104
0.007049668116273747
0.005706874189364461
0.006378271152819104
0.007049668116273747
0.006378271152819104
0.006378271152819104
0.006378271152819104
0.007049668116273747
0.006378271152819104
0.006378271152819104
0.006378271152819104
0.006378271152819104
0.006378271152819104
0.006378271152819104
0.0050354772259098195
0.0050354772259098195
0.006378271152819104
0.006378271152819104
0.006042572671091783
0.0050354772259098195
0.005706874189364461
0.006378271152819104
0.006042572671091783
0.005706874189364461
0.005706874189364461
0.005706874189364461
0.005706874189364461
0.0050354772259098195
0.0050354772259098195
0.005706874189364461
0.005706874189364461
0.005706874189364461
0.005706874189364461
0.006378271152819104
0.007049668116273747
0.006378271152819104
0.006378271152819104
0.006378271152819104
0.006378271152819104
0.006378271152819104
0.0050354772259098195
0.006042572671091783
0.006378271152819104
0.006378271152819104
0.006378271152819104
0.006378271152819104
0.006378271152819104
0.006042572671091783
0.006042572671091783
0.007049668116273747
0.006378271152819104
0.007385366598001068
0.007049668116273747
0.007049668116273747
0.006378271152819104
0.007049668116273747
0.007049668116273747
0.007385366598001068
0.007721065079728388
0.007721065079728388
0.007721065079728388
0.007721065079728388
0.008392462043183033
0.007721065079728388
0.008392462043183033
0.008728160524910353
0.007721065079728388
0.007721065079728388
0.007721065079728388
0.007721065079728388
0.007049668116273747
0.006378271152819104
0.006378271152819104
0.005706874189364461
0.0050354772259098195
0.005706874189364461
0.004699778744182497
0.003692683299000534
0.0030212863355458916
0.0010070954451819635
3.0840619516289003
9.440848401617455
-10.056519417105362
-10.984054322117952
-10.987747005416953
-10.98808270389868
-10.98908979934386
-10.98908979934386
-10.98908979934386
-10.98942549782559
-10.989761196307317
-10.989761196307317
-10.98908979934386
-3.979034103913939
10.947463187609674
10.97297627222095
10.974990463111313
10.97566186007477
10.97566186007477
10.97566186007477
10.974990463111313
10.97566186007477
10.97566186007477
10.974990463111313
10.703074692912182
2.5697718776226446
-3.1646295872434576
-7.57436484321355
-10.964248111696039
-10.98673990997177
-10.98808270389868
-10.98908979934386
-10.98942549782559
-10.989761196307317
-10.989761196307317
-10.989761196307317
-10.989761196307317
-10.989761196307317
-10.989761196307317
-10.989761196307317
-10.990096894789042
-10.989761196307317
-10.989761196307317
-10.27875181200885
-5.556816968032349
-1.48882276646067
2.1984893568322272
5.425894560158693
8.133638513771267
10.421087968261235
10.971633478294041
10.97297627222095
10.97297627222095
10.97297627222095
10.97297627222095
10.97431906614786
10.97431906614786
10.97431906614786
10.97431906614786
10.97431906614786
10.97431906614786
10.97431906614786
10.97297627222095
10.97431906614786
10.97566186007477
10.97431906614786
10.97431906614786
10.97431906614786
10.974990463111313
10.97566186007477
10.97566186007477
10.974990463111313
10.97566186007477
10.974990463111313
10.97431906614786
10.974990463111313
10.12835889219501
-4.562142366674296
-10.980697337300677
-10.987075608453498
-10.988418402380407
-10.988754100862135
-10.98942549782559
-10.988754100862135
-10.98908979934386
-10.98942549782559
-10.98908979934386
-9.08567940794995
-6.684763866636148
-4.554421301594568
-2.664438849469749
-0.9940032043945983
0.4696421759365224
1.743953612573434
2.831616693369955
3.7430380712596323
4.503395132372016
5.129137102311741
5.632684824902723
6.0254520485236895
6.31616693369955
6.516243228809032
6.627695124742503
6.667978942549782
6.645151445792325
6.557869840543221
6.417547875181201
6.240970473792629
6.0415655756466
5.820004577706569
5.558831158922712
5.2822156099794
4.999557488364995
4.712870984969863
4.422827496757458
4.132784008545052
3.8420691233691917
3.562767986572061
3.29588769359884
3.0276646066987105
2.7624628061341263
2.516060120546273
2.3038986800946057
2.0715953307392994
1.8540627145799953
1.6445868619821469
1.4320897230487526
1.229663538567178
1.0389868009460594
0.8818799114976732
0.7529716945143816
0.6173495078965439
0.47702754253452356
0.361547264820325
0.2628519111924925
0.16684214541847867
0.0788891432059205
0.006378271152819104
-0.05941863126573587
-0.11715877012283514
-0.16348516060120546
-0.2017547875181201
-0.23129625391012437
-0.2541237506675822
-0.2759441519798581
-0.2937361715114062
-0.3085069047074082
-0.32059205004959185
-0.3279774166475929
-0.3346913862821393
-0.34140535591668575
-0.3467765316243228
-0.34946211947814143
-0.34811932555123215
-0.3444266422522316
-0.3373769741359579
-0.3259632257572289
-0.3138780804150454
-0.3014572365911345
-0.28836499580376895
-0.2756084534981307
-0.2621805142290379
-0.2480811779964904
-0.23532463569085216
-0.22256809338521402
-0.20981155107957578
-0.1977264057373922
-0.18832684824902723
-0.17892729076066224
-0.17019913023575187
-0.16214236667429618
-0.15475700007629511
-0.14636453803311208
-0.13998626688029298
-0.13327229724574652
-0.12655832761120012
-0.11984435797665367
-0.11313038834210726
-0.10708781567101548
-0.10238803692683297
-0.09735255970092317
-0.09365987640192262
-0.08996719310292209
-0.08661020828564889
-0.08426031891355765
-0.08157473105973906
-0.07956054016937514
-0.07821774624246586
-0.07821774624246586
-0.07687495231555656
-0.07620355535210192
-0.07553215838864728
-0.074189364461738
-0.07486076142519264
-0.07553215838864728
-0.07553215838864728
-0.074189364461738
-0.074189364461738
-0.07150377660791943
-0.06915388723582817
-0.06747539482719157
-0.064789806973373
-0.06378271152819104
-0.061432822156099784
-0.058075837338826576
-0.05673304341191729
-0.054047455558098714
-0.054047455558098714
-0.0520332646677348
-0.054047455558098714
-0.055390249485008015
-0.05471885252155337
-0.055390249485008015
-0.055390249485008015
-0.056061646448462656
-0.05673304341191729
-0.056061646448462656
-0.055390249485008015
-0.054047455558098714
-0.051361867704280154
-0.048676279850461586
-0.0473334859235523
-0.04599069199664301
-0.044983596551461044
-0.044647898069733724
-0.043305104142824444
-0.041962310215915156
-0.04129091325246051
-0.04061951628900587
-0.04095521477073319
-0.041962310215915156
-0.041962310215915156
-0.0426337071793698
-0.041962310215915156
-0.041626611734187836
-0.0426337071793698
-0.043305104142824444
-0.043305104142824444
-0.041962310215915156
-0.04061951628900587
-0.0379339284351873
-0.035248340581368734
-0.03390554665445944
-0.033234149691004806
-0.03189135576409552
-0.03054856183718624
-0.029205767910276948
-0.02719157701991302
-0.02719157701991302
-0.02584878309300374
-0.025177386129549097
-0.02719157701991302
-0.027862973983367664
-0.02853437094682231
-0.02853437094682231
-0.029205767910276948
-0.03054856183718624
-0.033234149691004806
-0.035248340581368734
-0.03457694361791409
-0.033234149691004806
-0.03121995880064088
-0.029205767910276948
-0.027862973983367664
-0.02584878309300374
-0.025177386129549097
-0.02349889372091249
-0.021149004348821242
-0.01913481345845731
-0.017456321049820707
-0.016449225604638743
-0.015106431677729458
-0.015106431677729458
-0.015106431677729458
-0.015106431677729458
-0.01376363775082017
-0.011078049897001601
-0.011078049897001601
-0.011749446860456245
-0.011749446860456245
-0.011078049897001601
-0.011078049897001601
-0.009735255970092317
-0.009063859006637675
-0.009063859006637675
-0.009063859006637675
-0.011078049897001601
-0.011749446860456245
-0.012420843823910887
-0.012420843823910887
-0.013092240787365528
-0.01376363775082017
-0.015106431677729458
-0.017792019531548024
-0.019806210421911954
-0.020477607385366595
-0.020477607385366595
-0.020477607385366595
-0.020477607385366595
-0.023163195239185166
-0.024505989166094453
-0.023163195239185166
-0.020477607385366595
-0.016784924086366067
-0.014099336232547494
-0.011413748378728923
-0.010070954451819639
-0.009063859006637675
-0.008392462043183033
-0.007385366598001068
-0.005706874189364461
-0.005706874189364461
-0.008392462043183033
-0.010406652933546959
-0.014435034714274816
-0.020477607385366595
-0.027862973983367664
-0.03256275272755016
-0.03121995880064088
-0.029877164873731592
-0.02853437094682231
-0.02719157701991302
-0.024505989166094453
0.0315556572823682
1.475394827191577
5.098252841992828
9.420706492713816
10.970290684367132
10.97297627222095
10.97297627222095
10.97431906614786
10.97431906614786
10.97566186007477
10.97431906614786
10.97431906614786
10.831982909895475
10.67353322652018
10.517769130998701
10.368719005111771
10.222354467078658
10.078675516899366
9.936339360646981
9.796688792248416
9.662409399557488
9.530815594720377
9.399221789883267
9.272999160753795
8.651285572594794
0.7714351110093842
-7.872465094987411
-10.980025940337224
-10.987075608453498
-10.988418402380407
-10.98908979934386
-10.98942549782559
-10.98942549782559
-10.98942549782559
-10.98942549782559
-10.989761196307317
-10.990096894789042
-10.989761196307317
-10.989761196307317
-10.989761196307317
-10.98942549782559
-10.989761196307317
-10.989761196307317
-8.898359655146105
-6.021423666742962
-3.462729839017319
-1.2088502327000838
0.7700923170824749
2.4794689860379946
3.919279774166476
5.134508278019379
6.152346074616617
6.9875638971541925
7.661646448462653
8.188021667811093
8.581460288395514
8.855390249485009
9.022568093385212
9.09575036240177
9.086350804913405
9.00175478751812
8.848676279850462
8.640543221179522
8.384740978103302
8.088654917219806
7.755642023346303
7.398458838788433
7.0211337453269245
6.627695124742503
6.2221713588159
5.808590829327839
5.390981918059052
4.975387197680629
4.561135271229114
4.152590218966965
3.7524376287479977
3.3626916914625773
2.985366598001068
2.6207980468451972
2.271671625848783
1.9386587319752806
1.6237735561150528
1.3250019073777368
1.0457007705806056
0.7848630502784771
0.5414816510261692
0.3165636682688639
0.11111619745174332
-0.0788891432059205
-0.2504310673685817
-0.4058594644083314
-0.5455100328068971
-0.6703898680094605
-0.7818417639429311
-0.8771801327534905
-0.9624475471122301
-1.0356298161287862
-1.0973983367666131
-1.1487602044708933
-1.1913939116502632
-1.2249637598229952
-1.2491340505073625
-1.2679331654840924
-1.280018310826276
-1.2867322804608223
-1.2874036774242772
-1.284046692607004
-1.276661326009003
-1.2652475776302736
-1.2518196383611808
-1.2343633173113602
-1.2158999008163576
-1.1957579919127184
-1.173266193636988
-1.1497672999160753
-1.1255970092317082
-1.1007553215838863
-1.07524223697261
-1.0497291523613335
-1.0235446707866025
-0.9987029831387808
-0.9731898985275043
-0.9476768139162279
-0.9218280308232241
-0.8973220416571298
-0.87348744945449
-0.8503242542153048
-0.8274967574578469
-0.8060120546272984
-0.7851987487602046
-0.7657282368200198
-0.7452506294346533
-0.7271229114213779
-0.7093308918898298
-0.691874570840009
-0.6757610437170978
-0.6603189135576409
-0.6462195773250935
-0.6314488441290912
-0.6166781109330892
-0.6045929655909056
-0.5911650263218127
-0.5794155794613565
-0.568337529564355
-0.5562523842221714
-0.5461814297703517
-0.5347676813916227
-0.5253681239032578
-0.5152971694514382
-0.5065690089265278
-0.4971694514381629
-0.4891126878767071
-0.48105592431525135
-0.47367055771725036
-0.46527809567406725
-0.4588998245212481
-0.45151445792324707
-0.44480048828870067
-0.43808651865415427
-0.4313725490196079
-0.42465857938506135
-0.4182803082322423
-0.4119020370794232
-0.4058594644083314
-0.39914549477378497
-0.39377431906614785
-0.3870603494316014
-0.38101777676050963
-0.3763179980163271
-0.37027542534523533
-0.36423285267414357
-0.3602044708934157
-0.35416189822232397
-0.34845502403295947
-0.34341954680704967
-0.3373769741359579
-0.33368429083695733
-0.3279774166475929
-0.32327763790341035
-0.31857785915922787
-0.3138780804150454
-0.3085069047074082
-0.30380712596322573
-0.2984359502555886
-0.29440756847486077
-0.28970778973067823
-0.28500801098649575
-0.2796368352788586
-0.2756084534981307
-0.2715800717174029
-0.26688029297322036
-0.2621805142290379
-0.2581521324483101
-0.2554665445944915
-0.250766765850309
-0.24673838406958112
-0.24271000228885328
-0.23935301747158008
-0.23532463569085216
-0.2316319523918517
-0.22793926909285112
-0.22458228427557791
-0.22088960097657745
-0.21652552071412223
-0.2124971389333944
-0.20981155107957578
-0.20712596322575721
-0.20376897840848401
-0.1990691996643015
-0.19571221484702828
-0.19369802395666438
-0.1893339436942092
-0.18631265735866331
-0.18295567254139009
-0.1802700846875715
-0.1782558937972076
-0.17557030594338902
-0.17288471808957045
-0.1708705271992065
-0.16684214541847867
-0.1641565575646601
-0.16214236667429618
-0.1594567788204776
-0.1560997940032044
-0.15408560311284045
-0.15140001525902191
-0.1487144274052033
-0.14602883955138474
-0.14401464866102082
-0.14132906080720226
-0.138979171435111
-0.13662928206301975
-0.13461509117265583
-0.13192950331883724
-0.12991531242847335
-0.12857251850156404
-0.12655832761120012
-0.12387273975738157
-0.12252994583047226
-0.11984435797665367
-0.11850156404974439
-0.11648737315938049
-0.11380178530556191
-0.11178759441519796
-0.11044480048828872
-0.10843060959792476
-0.10641641870756083
-0.10507362478065153
-0.10373083085374227
-0.10171663996337835
-0.09903105210955977
-0.09802395666437781
-0.0963454642557412
-0.09500267032883192
-0.09298847943846798
-0.09164568551155872
-0.09063859006637676
-0.08963149462119477
-0.08761730373083085
-0.08627450980392155
-0.08493171587701229
-0.08358892195010299
-0.08291752498664834
-0.08090333409628443
-0.07956054016937514
-0.07821774624246586
-0.0775463492790112
-0.07553215838864728
-0.074189364461738
-0.07284657053482871
-0.07150377660791943
-0.07016098268101013
-0.06881818875410085
-0.06814679179064621
-0.06680399786373693
-0.06613260090028229
-0.064789806973373
-0.06344701304646372
-0.06210421911955444
-0.06210421911955444
-0.060761425192645144
-0.059754329747463183
-0.05874723430228122
-0.058075837338826576
-0.05673304341191729
-0.055390249485008015
-0.05471885252155337
-0.054047455558098714
-0.05270466163118945
-0.051361867704280154
-0.050690470740825506
-0.050019073777370866
-0.049347676813916226
-0.04800488288700694
-0.0473334859235523
-0.04666208896009766
-0.04599069199664301
-0.044983596551461044
-0.044647898069733724
-0.044647898069733724
-0.043305104142824444
-0.042298008697642483
-0.041962310215915156
-0.04129091325246051
-0.04061951628900587
-0.03927672236209659
-0.03860532539864195
-0.0379339284351873
-0.0379339284351873
-0.037262531471732654
-0.03659113450827802
-0.035248340581368734
-0.035248340581368734
-0.03424124513618677
-0.03390554665445944
-0.033234149691004806
-0.03256275272755016
-0.0315556572823682
-0.03121995880064088
-0.03054856183718624
-0.030212863355458915
-0.030212863355458915
-0.029205767910276948
-0.029205767910276948
-0.02887006942854963
-0.02887006942854963
-0.02853437094682231
-0.02719157701991302
-0.02584878309300374
-0.02584878309300374
-0.02652018005645838
-0.02584878309300374
-0.024505989166094453
-0.024505989166094453
-0.023834592202639806
-0.023163195239185166
-0.023163195239185166
-0.022491798275730522
-0.021820401312275882
-0.021820401312275882
-0.019806210421911954
-0.020477607385366595
-0.020477607385366595
-0.020477607385366595
-0.01913481345845731
-0.01913481345845731
-0.01913481345845731
-0.01913481345845731
-0.017792019531548024
-0.017120622568093383
-0.017792019531548024
-0.017120622568093383
-0.017120622568093383
-0.016449225604638743
-0.016449225604638743
-0.015106431677729458
-0.015106431677729458
-0.015106431677729458
-0.015106431677729458
-0.015106431677729458
-0.014099336232547494
-0.014435034714274816
-0.015106431677729458
-0.014435034714274816
-0.01376363775082017
-0.01376363775082017
-0.013092240787365528
-0.01376363775082017
-0.012420843823910887
-0.012420843823910887
-0.012420843823910887
-0.012420843823910887
-0.011749446860456245
-0.011078049897001601
-0.010406652933546959
-0.011078049897001601
-0.011078049897001601
-0.009735255970092317
-0.010070954451819639
-0.010070954451819639
-0.010406652933546959
-0.009735255970092317
-0.009735255970092317
-0.009735255970092317
-0.009735255970092317
-0.009063859006637675
-0.008392462043183033
-0.008392462043183033
-0.008392462043183033
-0.008392462043183033
-0.007721065079728388
-0.007049668116273747
-0.007721065079728388
-0.007049668116273747
-0.007049668116273747
-0.007049668116273747
-0.006378271152819104
-0.007049668116273747
-0.007049668116273747
-0.006378271152819104
-0.006042572671091783
-0.006378271152819104
-0.006378271152819104
-0.005706874189364461
-0.006042572671091783
-0.006378271152819104
-0.006378271152819104
-0.005706874189364461
-0.005706874189364461
-0.005706874189364461
-0.0050354772259098195
-0.005706874189364461
-0.005706874189364461
-0.005706874189364461
-0.004699778744182497
-0.004364080262455177
-0.003692683299000534
-0.003692683299000534
-0.004364080262455177
-0.003692683299000534
-0.003692683299000534
-0.003356984817273213
-0.003692683299000534
-0.003692683299000534
-0.003692683299000534
-0.003692683299000534
-0.003692683299000534
-0.0030212863355458916
-0.0030212863355458916
-0.0030212863355458916
-0.0030212863355458916
-0.0030212863355458916
-0.0023498893720912484
-0.0023498893720912484
-0.0016784924086366065
-0.0016784924086366065
-0.0030212863355458916
-0.0016784924086366065
-0.0010070954451819635
-0.0010070954451819635
-0.0016784924086366065
-0.0010070954451819635
-0.0010070954451819635
-0.0016784924086366065
-0.002014190890363927
-0.0016784924086366065
-0.0010070954451819635
-0.0016784924086366065
-0.0016784924086366065
-0.0010070954451819635
-0.0013427939269092851
-0.0010070954451819635
-0.0010070954451819635
-0.0010070954451819635
-0.0010070954451819635
-0.0016784924086366065
-0.0010070954451819635
-0.0010070954451819635
-0.0003356984817273213
-0.0003356984817273213
-0.0003356984817273213
-0.0003356984817273213
-0.0003356984817273213
-0.0003356984817273213
-0.0003356984817273213
-0.0010070954451819635
-0.0003356984817273213
-0.0003356984817273213
0.0010070954451819635
-0.0003356984817273213
0.0010070954451819635
-0.0003356984817273213
0.0003356984817273213
0.0010070954451819635
0.0010070954451819635
0.0010070954451819635
0.0010070954451819635
0.0006713969634546426
0.0003356984817273213
-0.0003356984817273213
0.0003356984817273213
0.0010070954451819635
0.0010070954451819635
0.0010070954451819635
0.0006713969634546426
0.0010070954451819635
0.0006713969634546426
0.0003356984817273213
0.0010070954451819635
0.0006713969634546426
-0.0003356984817273213
0.0003356984817273213
-0.0003356984817273213
0.0010070954451819635
0.0010070954451819635
0.0003356984817273213
0.0010070954451819635
0.0010070954451819635
0.0010070954451819635
0.0010070954451819635
0.0010070954451819635
0.0016784924086366065
0.0010070954451819635
0.0010070954451819635
0.0010070954451819635
0.0016784924086366065
0.0023498893720912484
0.0016784924086366065
0.0016784924086366065
0.0010070954451819635
0.0016784924086366065
0.0016784924086366065
0.0010070954451819635
0.0010070954451819635
0.0016784924086366065
0.0016784924086366065
0.0016784924086366065
0.0023498893720912484
0.0023498893720912484
0.0023498893720912484
0.0023498893720912484
0.0023498893720912484
0.0030212863355458916
0.0023498893720912484
0.0023498893720912484
0.0023498893720912484
0.0023498893720912484
0.0023498893720912484
0.002014190890363927
0.0023498893720912484
0.0023498893720912484
0.003356984817273213
0.0023498893720912484
0.0023498893720912484
0.003356984817273213
0.003692683299000534
0.003692683299000534
0.0023498893720912484
0.0030212863355458916
0.0023498893720912484
0.0023498893720912484
0.0023498893720912484
0.0023498893720912484
0.0023498893720912484
0.0030212863355458916
0.003692683299000534
0.006378271152819104
0.007721065079728388
0.011078049897001601
0.013092240787365528
0.015106431677729458
0.017120622568093383
0.01846341649500267
0.019470511940184634
0.01913481345845731
0.01913481345845731
0.01846341649500267
0.013092240787365528
0.009063859006637675
0.0050354772259098195
-0.0023498893720912484
-0.011078049897001601
-0.02584878309300374
-0.019806210421911954
-0.007049668116273747
-0.0010070954451819635
-0.002014190890363927
-0.004699778744182497
-0.004364080262455177
-0.002014190890363927
-0.0016784924086366065
-0.0016784924086366065
-0.0030212863355458916
-0.003692683299000534
-0.011078049897001601
-0.017792019531548024
-0.021820401312275882
-0.023163195239185166
-0.023163195239185166
-0.023163195239185166
-0.021820401312275882
-0.019470511940184634
-0.017120622568093383
-0.01376363775082017
-0.011078049897001601
-0.007721065079728388
-0.004364080262455177
-0.0016784924086366065
0.0010070954451819635
0.003356984817273213
0.005706874189364461
0.007721065079728388
0.009063859006637675
0.009735255970092317
0.011749446860456245
0.013092240787365528
0.013092240787365528
0.012756542305638208
0.012756542305638208
0.013092240787365528
0.012420843823910887
0.011749446860456245
0.011413748378728923
0.010406652933546959
0.010406652933546959
0.009399557488364994
0.009063859006637675
0.009063859006637675
0.009063859006637675
0.009735255970092317
0.009063859006637675
0.009735255970092317
0.010406652933546959
0.011078049897001601
0.011078049897001601
0.011078049897001601
0.010406652933546959
0.010406652933546959
0.009735255970092317
0.009063859006637675
0.008392462043183033
0.007721065079728388
0.006378271152819104
0.0050354772259098195
0.0050354772259098195
0.004028381780727854
0.003692683299000534
0.003692683299000534
0.003692683299000534
0.0023498893720912484
0.0023498893720912484
0.0023498893720912484
0.0016784924086366065
0.0023498893720912484
0.0023498893720912484
0.0023498893720912484
0.0023498893720912484
0.0023498893720912484
0.0023498893720912484
0.0023498893720912484
0.0030212863355458916
0.0030212863355458916
0.003692683299000534
0.004364080262455177
0.003692683299000534
0.003692683299000534
0.003692683299000534
0.003692683299000534
0.003692683299000534
0.003692683299000534
0.004028381780727854
0.0023498893720912484
0.003356984817273213
0.003356984817273213
0.003692683299000534
0.003692683299000534
0.003356984817273213
0.003356984817273213
0.003692683299000534
0.003692683299000534
0.0023498893720912484
0.0030212863355458916
0.0023498893720912484
0.002014190890363927
0.0016784924086366065
0.0016784924086366065
0.0010070954451819635
0.0003356984817273213
-0.0003356984817273213
-0.0003356984817273213
-0.0006713969634546426
-0.0010070954451819635
0.0010070954451819635
-0.0003356984817273213
-0.023163195239185166
-0.035248340581368734
-0.03390554665445944
-0.03121995880064088
-0.02584878309300374
-0.01913481345845731
-0.01376363775082017
-0.009063859006637675
-0.003692683299000534
0.0006713969634546426
0.0050354772259098195
0.007721065079728388
0.011078049897001601
0.013092240787365528
0.014435034714274816
0.016449225604638743
0.017120622568093383
0.01812771801327535
0.01846341649500267
0.017792019531548024
0.017120622568093383
0.017792019531548024
0.01812771801327535
0.017120622568093383
0.017120622568093383
0.0157778286411841
0.014770733196002136
0.014770733196002136
0.014435034714274816
0.014435034714274816
0.013092240787365528
0.012420843823910887
0.011078049897001601
0.010406652933546959
0.009735255970092317
0.009399557488364994
0.007721065079728388
0.007049668116273747
0.006378271152819104
0.0050354772259098195
0.0050354772259098195
0.004364080262455177
0.004699778744182497
0.004364080262455177
0.004699778744182497
0.0030212863355458916
0.0023498893720912484
0.0023498893720912484
0.0023498893720912484
0.002014190890363927
0.0016784924086366065
0.0010070954451819635
0.002014190890363927
0.0016784924086366065
0.0010070954451819635
0.0006713969634546426
0.0010070954451819635
0.0010070954451819635
0.0010070954451819635
0.0010070954451819635
0.0010070954451819635
0.0006713969634546426
0.0003356984817273213
0.0003356984817273213
0.0006713969634546426
0.0010070954451819635
0.0016784924086366065
0.0010070954451819635
0.0006713969634546426
0.0010070954451819635
0.0010070954451819635
0.0013427939269092851
0.0010070954451819635
0.0016784924086366065
0.0010070954451819635
0.0010070954451819635
0.002014190890363927
0.0016784924086366065
0.0016784924086366065
0.0023498893720912484
0.0016784924086366065
0.0016784924086366065
0.002014190890363927
0.0023498893720912484
0.002014190890363927
0.0016784924086366065
0.0023498893720912484
0.0030212863355458916
0.0030212863355458916
0.0023498893720912484
0.0023498893720912484
0.0023498893720912484
0.0023498893720912484
0.0030212863355458916
0.0023498893720912484
0.0030212863355458916
0.0023498893720912484
0.0023498893720912484
0.0023498893720912484
0.0023498893720912484
0.0023498893720912484
0.003692683299000534
0.0023498893720912484
0.003356984817273213
0.0030212863355458916
0.0023498893720912484
0.0030212863355458916
0.0030212863355458916
0.0023498893720912484
0.0023498893720912484
0.0030212863355458916
0.0023498893720912484
0.0030212863355458916
0.003692683299000534
0.0030212863355458916
0.0023498893720912484
0.003356984817273213
0.003356984817273213
0.0023498893720912484
0.0023498893720912484
0.003356984817273213
0.003692683299000534
0.0023498893720912484
0.0030212863355458916
0.003692683299000534
0.003356984817273213
0.003356984817273213
0.0030212863355458916
0.0030212863355458916
0.003356984817273213
0.003356984817273213
0.003692683299000534
0.0023498893720912484
0.0030212863355458916
0.003356984817273213
0.0023498893720912484
0.0030212863355458916
0.003692683299000534
0.003692683299000534
0.003692683299000534
0.003692683299000534
0.003692683299000534
0.0030212863355458916
0.003692683299000534
0.003692683299000534
0.003692683299000534
0.003692683299000534
0.0030212863355458916
0.003692683299000534
0.003692683299000534
0.004028381780727854
0.003692683299000534
0.003356984817273213
0.003692683299000534
0.003692683299000534
0.003356984817273213
0.0030212863355458916
0.003356984817273213
0.003356984817273213
0.003692683299000534
0.0030212863355458916
0.003692683299000534
0.0030212863355458916
0.003692683299000534
0.0030212863355458916
0.003692683299000534
0.003692683299000534
0.003356984817273213
0.003692683299000534
0.0030212863355458916
0.003692683299000534
0.003692683299000534
0.003692683299000534
0.003692683299000534
0.0023498893720912484
0.003692683299000534
0.003692683299000534
0.0030212863355458916
0.0030212863355458916
0.0023498893720912484
0.003356984817273213
0.003692683299000534
0.003692683299000534
0.003356984817273213
0.003356984817273213
0.003692683299000534
0.003692683299000534
0.0030212863355458916
0.003692683299000534
0.003692683299000534
0.0030212863355458916
0.0023498893720912484
0.003692683299000534
0.003692683299000534
0.0023498893720912484
0.003356984817273213
0.0030212863355458916
0.0023498893720912484
0.0030212863355458916
0.0023498893720912484
0.0023498893720912484
0.0023498893720912484
0.003692683299000534
0.0023498893720912484
0.003356984817273213
0.0030212863355458916
0.003356984817273213
0.003692683299000534
0.003692683299000534
0.0030212863355458916
0.0030212863355458916
0.0030212863355458916
0.0023498893720912484
0.0023498893720912484
0.003692683299000534
0.003356984817273213
0.0023498893720912484
0.003692683299000534
0.004364080262455177
0.0050354772259098195
0.004364080262455177
0.004364080262455177
0.0050354772259098195
0.0050354772259098195
0.0050354772259098195
0.0050354772259098195
0.0050354772259098195
0.0050354772259098195
0.0050354772259098195
0.0050354772259098195
0.004364080262455177
0.005706874189364461
0.0050354772259098195
0.0050354772259098195
0.0050354772259098195
0.0050354772259098195
0.0050354772259098195
0.004364080262455177
0.004364080262455177
0.004364080262455177
0.004364080262455177
0.003692683299000534
0.003692683299000534
0.004364080262455177
0.003692683299000534
0.003692683299000534
0.0030212863355458916
0.003692683299000534
0.0030212863355458916
0.003692683299000534
0.0023498893720912484
0.0023498893720912484
0.0023498893720912484
0.0030212863355458916
0.0030212863355458916
0.0023498893720912484
0.0023498893720912484
0.0030212863355458916
0.0023498893720912484
0.0023498893720912484
0.0023498893720912484
0.0023498893720912484
0.0023498893720912484
0.002014190890363927
0.002014190890363927
0.0023498893720912484
0.002014190890363927
0.0016784924086366065
0.0023498893720912484
0.0023498893720912484
0.0023498893720912484
0.0023498893720912484
0.0023498893720912484
0.0023498893720912484
0.0023498893720912484
0.0023498893720912484
0.0030212863355458916
0.003692683299000534
0.0030212863355458916
0.0023498893720912484
0.0023498893720912484
0.0023498893720912484
0.0023498893720912484
0.0023498893720912484
0.0023498893720912484
0.0023498893720912484
0.0023498893720912484
0.0023498893720912484
0.0023498893720912484
0.0023498893720912484
0.0023498893720912484
0.0030212863355458916
0.003356984817273213
0.0023498893720912484
0.003356984817273213
0.0023498893720912484
0.0023498893720912484
0.0023498893720912484
0.0023498893720912484
0.0023498893720912484
0.0030212863355458916
0.0023498893720912484
0.0023498893720912484
0.0023498893720912484
0.0030212863355458916
0.0023498893720912484
0.0023498893720912484
0.0023498893720912484
0.0023498893720912484
0.0030212863355458916
0.0023498893720912484
0.003692683299000534
0.003692683299000534
0.003356984817273213
0.0030212863355458916
0.003692683299000534
0.003692683299000534
0.003692683299000534
0.004028381780727854
0.003692683299000534
0.003692683299000534
0.003692683299000534
0.004364080262455177
0.003692683299000534
0.003692683299000534
0.003692683299000534
0.003692683299000534
0.004364080262455177
0.0050354772259098195
0.005706874189364461
0.0050354772259098195
0.0050354772259098195
0.0050354772259098195
0.0050354772259098195
0.0050354772259098195
0.0050354772259098195
0.0050354772259098195
0.0053711757076371405
0.0050354772259098195
0.004699778744182497
0.0050354772259098195
0.0050354772259098195
0.0050354772259098195
0.004699778744182497
0.0050354772259098195
0.005706874189364461
0.0050354772259098195
0.004364080262455177
0.004364080262455177
0.003356984817273213
0.0030212863355458916
0.004364080262455177
0.003356984817273213
0.003692683299000534
0.003692683299000534
0.003692683299000534
0.0030212863355458916
0.0030212863355458916
0.0030212863355458916
0.0023498893720912484
0.0023498893720912484
0.0023498893720912484
0.0023498893720912484
0.0023498893720912484
0.0023498893720912484
0.0023498893720912484
0.0030212863355458916
0.003356984817273213
0.003692683299000534
0.0030212863355458916
0.0023498893720912484
0.0030212863355458916
0.0030212863355458916
0.0023498893720912484
0.0023498893720912484
0.003356984817273213
0.003356984817273213
0.0023498893720912484
0.0023498893720912484
0.003692683299000534
0.0030212863355458916
0.003692683299000534
0.003692683299000534
0.003692683299000534
0.003692683299000534
0.004364080262455177
0.004364080262455177
0.003692683299000534
0.003692683299000534
0.003692683299000534
0.003692683299000534
0.003692683299000534
0.004364080262455177
0.003692683299000534
0.004364080262455177
0.003692683299000534
0.003692683299000534
0.003692683299000534
0.003692683299000534
0.003692683299000534
0.0030212863355458916
0.0030212863355458916
0.0023498893720912484
0.0023498893720912484
0.0023498893720912484
0.003692683299000534
0.0023498893720912484
0.0023498893720912484
0.0023498893720912484
0.003692683299000534
0.0023498893720912484
0.0030212863355458916
0.0023498893720912484
0.003356984817273213
0.0030212863355458916
0.0023498893720912484
0.0023498893720912484
0.0030212863355458916
0.003692683299000534
0.003692683299000534
0.003692683299000534
0.003692683299000534
0.003692683299000534
0.003692683299000534
0.003692683299000534
0.003356984817273213
0.003692683299000534
0.0030212863355458916
0.0023498893720912484
0.0016784924086366065
0.0023498893720912484
0.0010070954451819635
0.0006713969634546426
-0.0003356984817273213
-0.0003356984817273213
-0.0016784924086366065
-0.0016784924086366065
-0.003692683299000534
-0.004364080262455177
-0.004699778744182497
-0.0050354772259098195
-0.006042572671091783
-0.005706874189364461
-0.005706874189364461
-0.004364080262455177
-0.0050354772259098195
-0.0030212863355458916
-0.0030212863355458916
-0.0016784924086366065
-0.0003356984817273213
0.0016784924086366065
0.002014190890363927
0.003692683299000534
0.0050354772259098195
0.007049668116273747
0.007049668116273747
0.008392462043183033
0.009735255970092317
0.010406652933546959
0.011413748378728923
0.011413748378728923
0.011413748378728923
0.012420843823910887
0.011749446860456245
0.011749446860456245
0.011749446860456245
0.011078049897001601
0.010406652933546959
0.010070954451819639
0.009735255970092317
0.009735255970092317
0.008392462043183033
0.007721065079728388
0.007721065079728388
0.007721065079728388
0.006378271152819104
0.006378271152819104
0.006378271152819104
0.0050354772259098195
0.004699778744182497
0.004699778744182497
0.004364080262455177
0.004364080262455177
0.004364080262455177
0.003692683299000534
0.0030212863355458916
0.003692683299000534
0.003692683299000534
0.003356984817273213
0.0030212863355458916
0.004028381780727854
0.0030212863355458916
0.0030212863355458916
0.0030212863355458916
0.003356984817273213
0.0030212863355458916
0.0023498893720912484
0.0023498893720912484
0.0023498893720912484
0.0023498893720912484
0.0023498893720912484
0.0023498893720912484
0.0023498893720912484
0.0023498893720912484
0.0023498893720912484
0.0023498893720912484
0.0023498893720912484
0.0023498893720912484
0.0016784924086366065
0.0016784924086366065
0.0016784924086366065
0.0023498893720912484
0.0023498893720912484
0.0023498893720912484
0.0023498893720912484
0.0023498893720912484
0.0030212863355458916
0.0023498893720912484
0.0030212863355458916
0.0030212863355458916
0.003692683299000534
0.003692683299000534
0.003692683299000534
0.003356984817273213
0.003692683299000534
0.004364080262455177
0.003692683299000534
0.004364080262455177
0.004364080262455177
0.0050354772259098195
0.004364080262455177
0.0050354772259098195
0.0050354772259098195
0.0050354772259098195
0.0050354772259098195
0.004364080262455177
0.0050354772259098195
0.0050354772259098195
0.0050354772259098195
0.0050354772259098195
0.0050354772259098195
0.0050354772259098195
0.0050354772259098195
0.0050354772259098195
0.0050354772259098195
0.0050354772259098195
0.0050354772259098195
0.0050354772259098195
0.0050354772259098195
0.0050354772259098195
0.0050354772259098195
0.0050354772259098195
0.0050354772259098195
0.004364080262455177
0.004364080262455177
0.004699778744182497
0.003692683299000534
0.003692683299000534
0.003692683299000534
0.004364080262455177
0.004028381780727854
0.003692683299000534
0.003692683299000534
0.003692683299000534
0.003692683299000534
0.003692683299000534
0.003692683299000534
0.003692683299000534
0.003692683299000534
0.003692683299000534
0.0023498893720912484
0.0023498893720912484
0.0030212863355458916
0.0030212863355458916
0.0030212863355458916
0.0030212863355458916
0.0023498893720912484
0.0023498893720912484
0.0023498893720912484
0.0023498893720912484
0.0023498893720912484
0.0023498893720912484
0.0023498893720912484
0.0023498893720912484
0.0030212863355458916
0.0030212863355458916
0.0030212863355458916
0.0023498893720912484
0.0023498893720912484
0.003692683299000534
0.0023498893720912484
0.003356984817273213
0.0023498893720912484
0.0030212863355458916
0.003356984817273213
0.0023498893720912484
0.0023498893720912484
0.0023498893720912484
0.0023498893720912484
0.0023498893720912484
0.0023498893720912484
0.0023498893720912484
0.0023498893720912484
0.0023498893720912484
0.0023498893720912484
0.0030212863355458916
0.0023498893720912484
0.0023498893720912484
0.0023498893720912484
0.0023498893720912484
0.0030212863355458916
0.0023498893720912484
0.0023498893720912484
0.0023498893720912484
0.0023498893720912484
0.002014190890363927
0.0023498893720912484
0.0030212863355458916
0.0023498893720912484
0.0023498893720912484
0.0023498893720912484
0.003356984817273213
0.003692683299000534
0.003692683299000534
0.0023498893720912484
0.0030212863355458916
0.003692683299000534
0.003692683299000534
0.003356984817273213
0.004699778744182497
0.004364080262455177
0.003692683299000534
0.003692683299000534
0.004699778744182497
0.004364080262455177
0.0050354772259098195
0.003692683299000534
0.004364080262455177
0.0050354772259098195
0.004699778744182497
0.0050354772259098195
0.004699778744182497
0.0050354772259098195
0.004364080262455177
0.004364080262455177
0.004364080262455177
0.004364080262455177
0.004364080262455177
0.004364080262455177
0.003692683299000534
0.003692683299000534
0.004699778744182497
0.003692683299000534
0.003356984817273213
0.004364080262455177
0.003692683299000534
0.003692683299000534
0.003692683299000534
0.0030212863355458916
0.0023498893720912484
0.0030212863355458916
0.0023498893720912484
0.0023498893720912484
0.0030212863355458916
0.0030212863355458916
0.003692683299000534
0.003692683299000534
0.003692683299000534
0.003692683299000534
0.0050354772259098195
0.0050354772259098195
0.0050354772259098195
0.006378271152819104
0.006378271152819104
0.006378271152819104
0.006378271152819104
0.006378271152819104
0.006378271152819104
0.005706874189364461
0.0050354772259098195
0.0050354772259098195
0.0050354772259098195
0.004699778744182497
0.003692683299000534
0.003692683299000534
0.003692683299000534
0.003356984817273213
0.0023498893720912484
0.0023498893720912484
0.0023498893720912484
0.0023498893720912484
0.0023498893720912484
0.0016784924086366065
0.0016784924086366065
0.0010070954451819635
0.0010070954451819635
0.0003356984817273213
0.0010070954451819635
0.0010070954451819635
0.0003356984817273213
-0.0003356984817273213
-0.0003356984817273213
-0.0003356984817273213
-0.0003356984817273213
-0.0003356984817273213
-0.0003356984817273213
-0.0006713969634546426
-0.0003356984817273213
-0.0003356984817273213
-0.0003356984817273213
-0.0003356984817273213
0.0003356984817273213
0.0010070954451819635
0.0010070954451819635
0.0010070954451819635
0.002014190890363927
0.0023498893720912484
0.0023498893720912484
0.0023498893720912484
0.003692683299000534
0.003692683299000534
0.0030212863355458916
0.003692683299000534
0.003692683299000534
0.004364080262455177
0.0050354772259098195
0.004364080262455177
0.004364080262455177
0.0050354772259098195
0.0050354772259098195
0.005706874189364461
0.0050354772259098195
0.0050354772259098195
0.005706874189364461
0.0050354772259098195
0.0050354772259098195
0.0050354772259098195
0.0050354772259098195
0.004364080262455177
0.004364080262455177
0.004364080262455177
0.0050354772259098195
0.004699778744182497
0.003692683299000534
0.003356984817273213
0.004364080262455177
0.004364080262455177
0.003692683299000534
0.004364080262455177
0.004364080262455177
0.003692683299000534
0.004364080262455177
0.004364080262455177
0.0050354772259098195
0.0050354772259098195
0.004699778744182497
0.0050354772259098195
0.0050354772259098195
0.0050354772259098195
0.0050354772259098195
0.0050354772259098195
0.0050354772259098195
0.005706874189364461
0.005706874189364461
0.006042572671091783
0.006378271152819104
0.006042572671091783
0.0050354772259098195
0.0050354772259098195
0.0050354772259098195
0.0050354772259098195
0.0050354772259098195
0.004699778744182497
0.0050354772259098195
0.004364080262455177
0.0050354772259098195
0.0050354772259098195
0.0050354772259098195
0.003692683299000534
0.003692683299000534
0.004364080262455177
0.004364080262455177
0.004364080262455177
0.004364080262455177
0.004364080262455177
0.003692683299000534
0.003692683299000534
0.003692683299000534
0.0030212863355458916
0.0023498893720912484
0.003356984817273213
0.0030212863355458916
0.0030212863355458916
0.0023498893720912484
0.0023498893720912484
0.0023498893720912484
0.0023498893720912484
0.0023498893720912484
0.0023498893720912484
0.0023498893720912484
0.0023498893720912484
0.004028381780727854
0.004364080262455177
0.005706874189364461
0.007049668116273747
0.007721065079728388
0.011749446860456245
0.09567406729228656
0.28635080491340503
0.24673838406958112
0.19235523002975508
0.1601281757839322
0.12152285038529029
0.06411841000991834
-0.011413748378728923
-0.0758678568703746
-0.11447318226901655
-0.12689402609292744
-0.1292439154650187
-0.12118715190356297
-0.0882887006942855
-0.06881818875410085
-0.06277561608300908
-0.06109712367437248
-0.051361867704280154
-0.049683375295643546
-0.05270466163118945
-0.0520332646677348
-0.054047455558098714
-0.05740444037537193
-0.058075837338826576
-0.05673304341191729
-0.056061646448462656
-0.055390249485008015
-0.05673304341191729
-0.05740444037537193
-0.054047455558098714
-0.048676279850461586
-0.041962310215915156
-0.035919737544823374
-0.02853437094682231
-0.019806210421911954
-0.009735255970092317
0.0010070954451819635
0.010406652933546959
0.017120622568093383
0.022491798275730522
0.027862973983367664
0.03121995880064088
0.033234149691004806
0.03390554665445944
0.03457694361791409
0.03457694361791409
0.03457694361791409
0.03457694361791409
0.03558403906309605
0.037262531471732654
0.03457694361791409
0.03189135576409552
0.03054856183718624
0.030212863355458915
0.029877164873731592
0.029205767910276948
0.02652018005645838
0.024505989166094453
0.021149004348821242
0.019806210421911954
0.016449225604638743
0.015106431677729458
0.011749446860456245
0.007721065079728388
0.004364080262455177
0.004364080262455177
0.003692683299000534
0.0023498893720912484
0.0023498893720912484
0.0023498893720912484
0.005706874189364461
0.010406652933546959
0.013092240787365528
0.014435034714274816
0.0157778286411841
0.014435034714274816
0.012085145342183566
0.009399557488364994
0.007721065079728388
0.0050354772259098195
0.0016784924086366065
-0.0016784924086366065
-0.0016784924086366065
-0.0006713969634546426
-0.0003356984817273213
-0.0006713969634546426
-0.0003356984817273213
0.0010070954451819635
0.003692683299000534
0.0050354772259098195
0.003692683299000534
0.0006713969634546426
-0.0016784924086366065
-0.0030212863355458916
-0.0016784924086366065
-0.0016784924086366065
-0.0003356984817273213
0.0010070954451819635
0.003356984817273213
0.004364080262455177
0.004364080262455177
0.003692683299000534
0.003692683299000534
0.003692683299000534
0.0050354772259098195
0.006378271152819104
0.007721065079728388
0.009063859006637675
0.009063859006637675
0.007721065079728388
0.007385366598001068
0.007385366598001068
0.007049668116273747
0.006378271152819104
0.0050354772259098195
0.0030212863355458916
0.0023498893720912484
0.0023498893720912484
0.003692683299000534
0.0050354772259098195
0.005706874189364461
0.006378271152819104
0.005706874189364461
0.0050354772259098195
0.004699778744182497
0.004364080262455177
0.004364080262455177
0.0023498893720912484
0.003692683299000534
0.007049668116273747
0.007721065079728388
0.007721065079728388
0.007385366598001068
0.009063859006637675
0.010070954451819639
0.009063859006637675
0.007721065079728388
0.0050354772259098195
0.003692683299000534
0.0023498893720912484
0.0006713969634546426
-0.0003356984817273213
-0.0016784924086366065
-0.0010070954451819635
-0.0030212863355458916
-0.0030212863355458916
-0.003356984817273213
-0.004364080262455177
-0.003692683299000534
-0.004364080262455177
-0.003692683299000534
-0.0030212863355458916
-0.004364080262455177
-0.004699778744182497
-0.005706874189364461
-0.007049668116273747
-0.008392462043183033
-0.008392462043183033
-0.006378271152819104
-0.0030212863355458916
0.0023498893720912484
0.006042572671091783
0.009735255970092317
0.012420843823910887
0.01376363775082017
0.014435034714274816
0.014435034714274816
0.015106431677729458
0.015106431677729458
0.01376363775082017
0.011749446860456245
0.009735255970092317
0.007721065079728388
0.007721065079728388
0.005706874189364461
0.0010070954451819635
-0.0010070954451819635
-0.0003356984817273213
0.0003356984817273213
0.0016784924086366065
0.0030212863355458916
0.0050354772259098195
0.006042572671091783
0.007049668116273747
1.5264209964141298
3.4385595483329516
3.065262836652171
7.217853055619135
10.515083543144883
10.970290684367132
10.97297627222095
10.97297627222095
10.97297627222095
10.97431906614786
10.97431906614786
10.97297627222095
10.8789806973373
10.720531013962006
10.562081330586707
10.40900282291905
10.25995269703212
10.114930952925917
9.971252002746624
9.831601434348059
9.694636453803312
9.559014267185473
9.428763256275271
9.296498054474707
9.17094682230869
9.047409781033034
8.92521553368429
8.343785763332571
0.5072404058899825
-8.211520561532005
-10.979354543373768
-10.985061417563134
-10.98673990997177
-10.987411306935224
-10.987411306935224
-10.987747005416953
-10.987747005416953
-10.98808270389868
-10.98808270389868
-10.98808270389868
-10.98808270389868
-10.98808270389868
-10.988418402380407
-10.988418402380407
-10.98808270389868
-10.988418402380407
-10.988418402380407
-10.988418402380407
-10.988418402380407
-10.988418402380407
-10.988418402380407
-10.988418402380407
-10.988754100862135
-10.988418402380407
-10.98808270389868
-10.988418402380407
-10.988418402380407
-10.988418402380407
-10.98808270389868
-10.98808270389868
-10.98808270389868
-10.98808270389868
-10.988418402380407
-10.61075761043717
-9.278370336461432
-7.994659342336155
-6.766002899214159
-5.589044022278172
-4.471839475089647
-5.450064850843061
-10.980361638818952
-10.988754100862135
-10.98942549782559
-10.989761196307317
-10.989761196307317
-10.98942549782559
-6.1933012893873505
10.948134584573127
10.972304875257496
10.97297627222095
10.97297627222095
10.97297627222095
10.97297627222095
10.97297627222095
10.97297627222095
10.97431906614786
10.97566186007477
10.974990463111313
10.974990463111313
10.974990463111313
10.974990463111313
10.97431906614786
10.97431906614786
10.97431906614786
10.975326161593042
-1.9567864499885559
-10.978683146410315
-10.98673990997177
-10.987411306935224
4.9478599221789885
10.969619287403678
10.97297627222095
4.273777370870527
-10.960555428397038
-10.986068513008314
-2.3502250705729764
10.960891126878767
10.97297627222095
10.97297627222095
10.97297627222095
10.97431906614786
10.97431906614786
10.97431906614786
10.97431906614786
10.97431906614786
10.97431906614786
10.974990463111313
2.579842832074464
-0.1279011215381094
-0.9164568551155872
-1.0423437857633324
3.080033569848173
4.921004043640802
6.710948348210881
7.538109407186999
7.445456626230258
4.966659037155718
2.6181124589913782
0.5676661326009002
-1.2001220721751735
-2.681223773556115
-3.9280079346913856
-4.9488670176241705
-5.77972075989929
-6.429968719005112
-6.919752803845272
-7.276264591439689
-7.501182574196994
-7.665003433279926
-8.245761806668193
-7.536766613260091
-7.248065918974594
-7.144670786602578
-6.877454795147631
-6.574654764629587
-6.237277790493629
-5.871702143892576
-5.483634699015792
-5.072068360418097
-4.642710002288853
-4.204287785152971
-3.769893949797818
-3.3388570992599367
-2.909498741130694
-2.489875638971542
-2.0823376821545736
-1.6862134737163343
-1.3058670939192798
-0.9570763714045929
-3.52651255054551
-5.726009002822919
0.4891126878767071
2.068909742885481
1.5881895170519569
1.895689326314183
2.001770046540017
2.0776379034103916
2.172304875257496
2.241794460975051
2.2985275043869686
2.35223926146334
2.4059510185397115
2.4509346150911724
2.485175860227359
2.510017547875181
2.5503013656824596
2.545601586938277
2.52143129625391
2.518074311436637
2.5227740901808193
2.506660563057908
2.473090714885176
2.456977187762264
2.4458991378652626
2.4395208667124435
2.4448920424200806
2.4260929274433507
2.377080949111162
2.3549248493171593
2.3320973525597006
2.2454871442740516
2.218631265735866
2.2441443503471428
2.234073395895323
2.2058747234302283
2.1790188448920422
2.150148775463493
0.9053788052185856
-10.875959411001755
-10.985732814526589
-10.98808270389868
-10.98908979934386
-10.98942549782559
-10.98942549782559
-10.989761196307317
-10.989761196307317
-10.98942549782559
-10.989761196307317
-8.952071412222475
-4.4315556572823676
-0.361547264820325
3.3579919127183953
6.597817959868772
9.348195620660716
10.967605096513314
10.97297627222095
10.97297627222095
10.97431906614786
10.97431906614786
10.97297627222095
10.97297627222095
10.97431906614786
10.97431906614786
10.97297627222095
10.97297627222095
10.97297627222095
10.97431906614786
10.97431906614786
10.97297627222095
10.97431906614786
10.97431906614786
10.97431906614786
10.97431906614786
10.97431906614786
10.97431906614786
10.266666666666666
9.313282978561073
8.409582665751126
7.512596322575722
6.627023727779049
5.760250247959105
4.919661249713894
4.112642099641413
3.3388570992599367
2.630869001297017
1.978271152819104
1.392141603723201
0.8912794689860379
0.41727321278706037
-0.015442130159456776
-0.406530861371786
-0.6975814450293737
-0.9456626230258641
-1.1903868162050812
-1.3766994735637446
-1.5640192263675896
-1.7674525062943467
-1.9450370031280995
-2.108522163729305
-2.215274280918593
-2.3341115434500646
-2.4744335088120852
-2.6412756542305638
-2.771190966659037
-2.8255741206988634
-2.869886320286869
-2.869886320286869
-2.845716029602502
-2.7893186846723124
-2.73694972152285
-2.722178988326848
-2.655374990463111
-2.555672541390097
-2.4576485847257192
-2.389501792935073
-2.307927061875334
-2.2669718471046005
-2.3502250705729764
-2.4707408255130847
-2.6271763179980163
-2.7980468451972227
-2.973281452658884
-3.2566109712367437
-3.6540779736018925
-4.113984893568323
-4.542336156252383
-4.9646448462653545
-5.413473716334782
-5.917021438925764
-6.495429922941939
-7.160112916762036
-7.921812771801328
-8.713054093232625
-9.457297627222093
-10.219333180743114
-10.960555428397038
-10.987747005416953
-10.988754100862135
-10.98908979934386
-10.98908979934386
-10.989761196307317
-10.98942549782559
-10.990096894789042
-10.990096894789042
-10.989761196307317
-10.990096894789042
-10.990432593270771
-10.990096894789042
-10.990096894789042
-10.990096894789042
-10.990096894789042
-10.990096894789042
-10.990096894789042
-10.990096894789042
-10.990096894789042
-10.990432593270771
-7.608606088349736
6.826428625925077
10.969619287403678
10.97297627222095
10.97431906614786
10.97431906614786
10.97431906614786
10.97431906614786
10.97566186007477
10.97431906614786
10.97431906614786
10.97431906614786
10.97431906614786
10.974990463111313
10.97431906614786
10.974990463111313
10.975326161593042
10.97431906614786
10.97431906614786
10.97297627222095
10.97431906614786
10.974990463111313
10.35529106584268
2.4556343938353553
-3.055191882200351
-7.175555046921492
-10.579873350118255
-10.985732814526589
-10.98808270389868
-10.988754100862135
-10.98942549782559
-10.98942549782559
-10.98942549782559
-10.98942549782559
-10.989761196307317
-10.989761196307317
-10.989761196307317
-10.98942549782559
-10.990096894789042
-10.989761196307317
-10.989761196307317
-10.989761196307317
-10.989761196307317
-10.989761196307317
-10.990096894789042
-10.990432593270771
-10.990096894789042
-10.989761196307317
-10.989761196307317
-10.989761196307317
-9.624811169604028
-6.944930189974822
-3.1277027542534523
1.1799801632715343
5.168749523155565
8.040314335851072
9.355916685740445
9.804745555809872
9.732234683756769
9.369680323491263
8.933272297245747
8.09939726863508
6.333623254749371
3.79708552681773
0.9369344625009536
-2.2864423590447847
-4.299290455481803
-4.562478065156023
-3.9706416418707566
-2.920912489509422
-1.7419394216830701
-0.3964599069199664
2.177676050965133
6.200686655985351
10.584908827344165
10.971633478294041
10.97297627222095
10.97297627222095
10.97297627222095
10.97297627222095
10.97297627222095
10.973647669184405
10.97297627222095
8.71708247501335
4.986800946059358
0.8859082932784007
-3.3150225070572974
-6.020752269779508
-6.7284046692607005
-6.239291981383992
-5.133836881055924
-3.8803387502861058
-2.3985656519417105
0.6489051651789121
5.361440451667048
10.341191729610133
10.970290684367132
10.972304875257496
10.97297627222095
10.97297627222095
10.97297627222095
10.97431906614786
10.97431906614786
10.159243152513923
6.6370946822308685
2.1206073090714885
-2.673838406958114
-7.478355077439534
-10.516426337071794
-10.985061417563134
-10.347905699244679
-8.901045242999924
-7.305134660868238
-5.365804531929503
-1.7009842069123366
3.9528496223392082
9.86382848859388
10.970290684367132
10.972304875257496
10.97297627222095
10.97297627222095
10.97297627222095
10.97431906614786
10.97297627222095
9.251514457923246
5.153307392996109
-0.11178759441519796
-5.577630273899443
-10.830640115968565
-10.985732814526589
-10.98808270389868
-10.98908979934386
-10.98942549782559
-9.881284809643702
-7.46895551995117
-3.0394140535591663
3.658777752346074
10.422430762188142
10.970290684367132
10.97297627222095
10.97297627222095
10.97297627222095
10.97297627222095
10.97431906614786
10.973647669184405
9.387136644541085
4.30600442511635
-1.6294804303044172
-7.832852674143588
-10.981368734264134
-10.987075608453498
-10.98808270389868
-10.988754100862135
-10.98908979934386
-10.98908979934386
-9.094071869993133
-3.7500877393759056
3.9421072709239344
10.915236133363852
10.970290684367132
10.97297627222095
10.97297627222095
10.97297627222095
10.97297627222095
10.97297627222095
10.97297627222095
10.280094605935759
3.9045090409704737
-2.9611963073167007
-9.943724727244982
-10.984725719081407
-10.987747005416953
-10.988418402380407
-10.988754100862135
-10.988754100862135
-10.98942549782559
-10.538918135347524
-4.26840619516289
4.583962767986573
10.959548332951858
10.970290684367132
10.97297627222095
10.97297627222095
10.97431906614786
10.97297627222095
10.97297627222095
10.97297627222095
10.97431906614786
3.8803387502861058
-4.2637064164187075
-10.935713740749216
-10.986404211490042
-10.98808270389868
-10.98908979934386
-10.98908979934386
-10.988754100862135
-10.989761196307317
-10.98942549782559
-4.694743266956588
5.6675974670023646
10.966933699549859
10.971633478294041
10.97297627222095
10.97431906614786
10.97297627222095
10.97297627222095
10.97431906614786
10.97431906614786
10.97431906614786
4.213351644159609
-5.5689021133745324
-10.97666895551995
-10.98673990997177
-10.988754100862135
-10.988754100862135
-10.98942549782559
-10.98908979934386
-10.98942549782559
-10.98942549782559
-5.106645304036012
6.8123292896925305
10.967605096513314
10.971633478294041
10.97297627222095
10.97297627222095
10.97297627222095
10.97297627222095
10.97431906614786
10.97431906614786
10.97431906614786
4.442969405661096
-7.486411841000993
-10.982711528191043
-10.987747005416953
-10.98908979934386
-10.988754100862135
-10.98942549782559
-10.98942549782559
-10.98908979934386
-10.989761196307317
-5.795834287022202
8.220248722056915
10.968947890440223
10.97297627222095
10.97297627222095
10.97431906614786
10.97297627222095
10.97297627222095
10.97297627222095
10.97431906614786
10.97431906614786
3.834683756771191
-10.395910582131684
-10.985061417563134
-10.987747005416953
-10.988754100862135
-10.98908979934386
-10.98908979934386
-10.98942549782559
-10.98908979934386
-10.98908979934386
-6.2866254673075455
9.690608072022583
10.971633478294041
10.97297627222095
10.97431906614786
10.97297627222095
10.97431906614786
10.97297627222095
10.97297627222095
10.97431906614786
10.97431906614786
0.5998931868467231
-10.966598001068132
-10.986404211490042
-10.98808270389868
-10.988754100862135
-10.98942549782559
-10.989761196307317
-10.989761196307317
-10.98908979934386
-10.98942549782559
-5.327870603494316
10.85413900968948
10.972304875257496
10.97297627222095
10.97431906614786
10.97431906614786
10.97431906614786
10.97297627222095
10.97297627222095
10.97297627222095
10.97431906614786
-3.42748149843595
-10.980361638818952
-10.987411306935224
-10.988418402380407
-10.98908979934386
-10.98908979934386
-10.989761196307317
-10.98942549782559
-10.98942549782559
-10.98942549782559
-4.164675364309147
10.946120393682763
10.972304875257496
10.97431906614786
10.97431906614786
10.97431906614786
10.97431906614786
10.97431906614786
10.97297627222095
10.97297627222095
10.973647669184405
-8.379369802395665
-10.984054322117952
-10.987747005416953
-10.988418402380407
-10.988754100862135
-10.98908979934386
-10.98908979934386
-10.98908979934386
-10.98942549782559
-7.659632257572289
-3.905851834897383
-0.5213397421225299
3.5808957045853362
10.962233920805676
10.971633478294041
10.971633478294041
10.97297627222095
10.97297627222095
10.97297627222095
10.97431906614786
-0.47367055771725036
-2.5315022507057297
1.0658426794842448
2.465705348287175
3.9004806591897463
5.21071183337148
6.227542534523536
7.089616235599297
7.791897459372854
8.349156939040206
8.77616540779736
9.080979629205768
9.278370336461432
9.384451056687267
9.409964141298541
9.369680323491263
9.271656366826885
9.119920653086135
8.921187151903563
8.6808270389868
8.406897077897307
8.107454032196538
7.789883268482491
7.456198977645532
7.10707255664912
6.735118638895247
6.343022812237735
5.946898603799497
5.549431601434348
5.155321583886472
4.7692683299000524
4.391943236438544
4.002532997634852
3.6131227588311594
3.243183031967651
2.900099183642328
2.5845426108186462
4.896833752956436
10.590280003051804
10.972304875257496
10.97297627222095
10.97297627222095
-3.999176012817579
-10.978347447928588
-9.251514457923246
-8.349156939040206
-7.708979934386206
-6.76835278858625
-6.0116884107728685
-5.293629358358129
-4.614847028305485
-3.9917906462195765
-3.4251316090638593
-2.9168841077286944
-1.2410772869459066
9.00309758144503
10.970290684367132
10.97297627222095
10.97431906614786
10.97431906614786
10.975326161593042
10.97431906614786
10.97431906614786
-1.0987411306935224
-10.980025940337224
-10.987075608453498
-10.988418402380407
-10.98908979934386
-10.988754100862135
-10.98942549782559
-10.98942549782559
-10.989761196307317
-10.989761196307317
-10.98942549782559
-10.988418402380407
7.691187914854658
10.970290684367132
10.97297627222095
10.97431906614786
10.97431906614786
10.97297627222095
10.97431906614786
10.97297627222095
10.97297627222095
-0.4300297550926986
-10.979018844892042
-10.98673990997177
-10.988754100862135
-10.98908979934386
-10.989761196307317
-10.98942549782559
-10.989761196307317
-10.989761196307317
-10.989761196307317
-10.988418402380407
6.238284885938811
10.969619287403678
10.97297627222095
10.97297627222095
10.97431906614786
10.97431906614786
10.97431906614786
10.97431906614786
10.97431906614786
10.97431906614786
-2.37976653696498
-10.980697337300677
-10.987411306935224
-10.98808270389868
-10.988754100862135
-10.98942549782559
-10.98942549782559
-10.990096894789042
-10.989761196307317
-10.98942549782559
-5.830746929121843
10.940077821011673
10.971633478294041
10.97297627222095
10.97431906614786
10.97431906614786
10.974990463111313
10.974990463111313
10.97566186007477
10.97431906614786
10.97431906614786
-0.42398718242160677
-10.97801174944686
-10.987075608453498
-10.988754100862135
-10.98908979934386
-10.98942549782559
-10.98942549782559
-10.98942549782559
-10.989761196307317
-10.98942549782559
-5.309071488517586
10.948805981536584
10.972304875257496
10.97297627222095
10.97431906614786
10.974990463111313
10.974990463111313
10.97431906614786
10.974990463111313
10.97431906614786
10.97431906614786
-3.1981994354161896
-10.981033035782406
-10.98673990997177
-10.988418402380407
-10.98908979934386
-10.98942549782559
-10.98942549782559
-10.98942549782559
-10.989761196307317
-10.98942549782559
-7.042282749675746
10.930006866559854
10.971633478294041
10.97297627222095
10.97297627222095
10.97431906614786
10.97431906614786
10.97431906614786
10.97431906614786
10.97297627222095
10.97431906614786
-3.1740291447318225
-10.980697337300677
-10.987411306935224
-10.988754100862135
-10.98942549782559
-10.98942549782559
-10.98942549782559
-10.989761196307317
-10.989761196307317
-10.98942549782559
-7.424979018844891
10.927321278706033
10.972304875257496
10.97297627222095
10.97297627222095
10.97431906614786
10.97431906614786
10.97431906614786
10.97431906614786
10.97297627222095
10.97431906614786
-0.22088960097657745
-10.977004654001679
-10.987075608453498
-10.988754100862135
-10.988754100862135
-10.98942549782559
-10.989761196307317
-10.989761196307317
-10.989761196307317
-10.98942549782559
-3.7547875181200885
10.959548332951858
10.97297627222095
10.973647669184405
10.97431906614786
10.97431906614786
10.97431906614786
10.974990463111313
10.97431906614786
10.97297627222095
10.97431906614786
-0.9456626230258641
-10.978347447928588
-10.98673990997177
-10.98808270389868
-10.988754100862135
-10.98908979934386
-10.98908979934386
-10.989761196307317
-10.989761196307317
-10.98942549782559
-3.9387502861066612
10.958205539024949
10.97297627222095
10.97297627222095
10.97431906614786
10.97431906614786
10.97566186007477
10.97566186007477
10.974990463111313
10.97297627222095
10.97431906614786
0.2648661020828565
-10.975997558556495
-10.98673990997177
-10.98808270389868
-10.988754100862135
-10.98908979934386
-10.98942549782559
-10.98908979934386
-10.98942549782559
-10.98908979934386
-5.698481727321279
10.948134584573127
10.972304875257496
10.973983367666131
10.97431906614786
10.97431906614786
10.974990463111313
10.97566186007477
10.97431906614786
10.97297627222095
10.974990463111313
4.236179140917066
-10.96156252384222
-10.986404211490042
-10.987747005416953
-10.98908979934386
-10.98908979934386
-10.98942549782559
-10.989761196307317
-10.98908979934386
-10.98942549782559
-8.884260318913556
10.82996871900511
10.971633478294041
10.97297627222095
10.97297627222095
10.97297627222095
10.97431906614786
10.97431906614786
10.97431906614786
10.97297627222095
10.97431906614786
9.100450141145952
-10.793377584496833
-10.985397116044862
-10.987747005416953
-10.988418402380407
-10.988754100862135
-10.98908979934386
-10.98942549782559
-10.989761196307317
-10.98942549782559
-7.671717402914473
10.899122606240939
10.971633478294041
10.97297627222095
10.97297627222095
10.97297627222095
10.97431906614786
10.97431906614786
10.97431906614786
10.97431906614786
10.97431906614786
8.969527733272297
-10.769542992294191
-10.985732814526589
-10.987747005416953
-10.988754100862135
-10.988754100862135
-10.98942549782559
-10.98942549782559
-10.98942549782559
-10.98908979934386
-7.2813000686655975
10.89173723964294
10.971633478294041
10.97431906614786
10.97431906614786
10.97297627222095
10.97431906614786
10.974990463111313
10.97431906614786
10.97431906614786
10.97297627222095
9.24345769436179
-10.607736324101625
-10.985061417563134
-10.98808270389868
-10.988754100862135
-10.98942549782559
-10.98908979934386
-10.98942549782559
-10.98942549782559
-10.98942549782559
-8.088990615701533
10.720531013962006
10.970290684367132
10.97297627222095
10.97431906614786
10.97431906614786
10.97431906614786
10.97431906614786
10.97297627222095
10.97297627222095
10.97297627222095
9.579156176089112
-10.15219348439765
-10.984725719081407
-10.987747005416953
-10.988418402380407
-10.98942549782559
-10.98942549782559
-10.98908979934386
-10.98942549782559
-10.989761196307317
-8.462623025864042
10.190127412832837
10.970290684367132
10.97297627222095
10.97431906614786
10.97431906614786
10.97431906614786
10.97431906614786
10.97431906614786
10.97297627222095
10.97431906614786
9.420706492713816
-9.550957503624018
-10.984725719081407
-10.98808270389868
-10.988754100862135
-10.98908979934386
-10.98942549782559
-10.989761196307317
-10.989761196307317
-10.98942549782559
-8.663706416418707
9.45293354695964
10.970290684367132
10.97297627222095
10.97431906614786
10.97431906614786
10.97431906614786
10.97297627222095
10.97297627222095
10.97431906614786
10.97297627222095
9.724177920195315
-8.45288776989395
-10.984054322117952
-10.987747005416953
-10.988754100862135
-10.98908979934386
-10.98942549782559
-10.989761196307317
-10.989761196307317
-10.98942549782559
-7.981231403067063
9.37907988097963
10.970290684367132
10.97297627222095
10.97431906614786
10.97431906614786
10.97297627222095
10.97297627222095
10.97297627222095
10.97431906614786
10.97297627222095
9.944396124208438
-7.281971465629052
-10.983382925154496
-10.987411306935224
-10.988418402380407
-10.988754100862135
-10.98942549782559
-10.98942549782559
-10.98942549782559
-10.98942549782559
-7.8751506828412285
8.88896009765774
10.970290684367132
10.97297627222095
10.97431906614786
10.97431906614786
10.97297627222095
10.97297627222095
10.97297627222095
10.97431906614786
10.97297627222095
9.784603646906232
-6.409491111619745
-10.982711528191043
-10.987747005416953
-10.988418402380407
-10.98908979934386
-10.98942549782559
-10.98908979934386
-10.989761196307317
-10.98942549782559
-7.307148851758601
8.635172045471885
10.970290684367132
10.97297627222095
10.97431906614786
10.97431906614786
10.97297627222095
10.97297627222095
10.97431906614786
10.97297627222095
10.97297627222095
9.710749980926222
-5.559502555886167
-10.98170443274586
-10.987411306935224
-10.988418402380407
-10.98908979934386
-10.98942549782559
-10.98942549782559
-10.98908979934386
-10.98942549782559
-6.917402914473183
8.316929884794384
10.968947890440223
10.97297627222095
10.97431906614786
10.97297627222095
10.97297627222095
10.97297627222095
10.97297627222095
10.97431906614786
10.97431906614786
9.41264972915236
-4.895155260547798
-10.980025940337224
-10.987075608453498
-10.98808270389868
-10.98908979934386
-10.988754100862135
-10.989761196307317
-10.98942549782559
-10.98908979934386
-6.217471580071717
7.833524071107042
10.968947890440223
10.971633478294041
10.97297627222095
10.97297627222095
10.97431906614786
10.97297627222095
10.97297627222095
10.97431906614786
10.97431906614786
8.860761425192646
-4.128755626764324
-10.97566186007477
-10.987075608453498
-10.988418402380407
-10.988754100862135
-10.98908979934386
-10.98908979934386
-10.988754100862135
-10.989761196307317
-5.47154955367361
7.211810482948042
10.969619287403678
10.972304875257496
10.97297627222095
10.97431906614786
10.97297627222095
10.97297627222095
10.97297627222095
10.97431906614786
10.97431906614786
7.761013199053941
-3.7547875181200885
-10.966262302586404
-10.986404211490042
-10.988418402380407
-10.98908979934386
-10.988754100862135
-10.98908979934386
-10.98908979934386
-10.98942549782559
-4.256992446784161
7.043961242084382
10.967605096513314
10.971633478294041
10.972304875257496
10.97297627222095
10.97297627222095
10.97297627222095
10.97297627222095
10.97297627222095
10.97297627222095
6.388677805752651
-3.5171129930571445
-10.935042343785764
-10.986068513008314
-10.987747005416953
-10.988754100862135
-10.988754100862135
-10.98908979934386
-10.988754100862135
-10.988418402380407
-3.5318837262531466
6.7169909208819725
10.968947890440223
10.971633478294041
10.972640573739222
10.97297627222095
10.97297627222095
10.97297627222095
10.97431906614786
10.97297627222095
10.97297627222095
5.166399633783475
-3.2975661860074768
-10.826611734187837
-10.985732814526589
-10.98808270389868
-10.988418402380407
-10.98908979934386
-10.988754100862135
-10.98908979934386
-9.61071183337148
-2.5905851834897384
6.740489814602884
10.967605096513314
10.971633478294041
10.972640573739222
10.97297627222095
10.97297627222095
10.97297627222095
10.97297627222095
10.97297627222095
10.97431906614786
4.285191119249256
-3.1894712748912797
-10.496955825131609
-10.985732814526589
-10.987747005416953
-10.988754100862135
-10.988418402380407
-10.988754100862135
-10.98942549782559
-8.704661631189442
-2.0971084153505757
6.599496452277408
10.967605096513314
10.971633478294041
10.97297627222095
10.97297627222095
10.97297627222095
10.97297627222095
10.97297627222095
10.97297627222095
10.318364232852673
3.6762340733958947
-3.226398107881285
-10.116945143816281
-10.984725719081407
-10.987411306935224
-10.988418402380407
-10.988754100862135
-10.988754100862135
-10.98908979934386
-7.844602121004044
-1.6674143587396046
6.482001983672847
10.967269398031585
10.971633478294041
10.97297627222095
10.97297627222095
10.97431906614786
10.97431906614786
10.97297627222095
10.97297627222095
9.235400930800335
3.175371938658732
-3.24452582589456
-9.766475928892957
-10.984725719081407
-10.987075608453498
-10.987747005416953
-10.988418402380407
-10.988754100862135
-10.988754100862135
-7.533073929961089
-1.4666666666666666
6.196658274204624
10.964919508659495
10.971633478294041
10.972304875257496
10.97297627222095
10.97297627222095
10.97431906614786
10.97297627222095
10.97297627222095
8.220248722056915
2.664774547951476
-3.4365453574425877
-9.614404516670481
-10.984390020599678
-10.987411306935224
-10.988418402380407
-10.988754100862135
-10.98942549782559
-10.573830777447165
-7.051346608682383
-1.3538719768062866
5.924071107042039
10.962233920805676
10.971633478294041
10.971633478294041
10.97297627222095
10.97297627222095
10.97297627222095
10.97431906614786
10.97297627222095
7.485069047074081
2.2213168535896846
-3.7077897306782637
-9.592584115358205
-10.984725719081407
-10.987411306935224
-10.98808270389868
-10.988418402380407
-10.98908979934386
-10.3223926146334
-6.966079194323644
-1.3370870527199208
5.791805905241474
10.958205539024949
10.971633478294041
10.97297627222095
10.97297627222095
10.97297627222095
10.97431906614786
10.97431906614786
10.944777599755856
6.838513771267262
1.8110933089188983
-3.93002212558175
-9.659052414740215
-10.984390020599678
-10.987075608453498
-10.988418402380407
-10.988754100862135
-10.98908979934386
-9.96420233463035
-6.642130159456778
-1.1605096513313495
5.606500343327992
10.946120393682763
10.971633478294041
10.97297627222095
10.97297627222095
10.97297627222095
10.97297627222095
10.97431906614786
10.192813000686655
6.3665217059586485
1.4894941634241243
-4.041474021515221
-9.609033340962842
-10.984054322117952
-10.987411306935224
-10.988418402380407
-10.98908979934386
-10.988754100862135
-9.929289692530709
-6.538399328603036
-1.140032043945983
5.494377050431067
10.93269245441367
10.971633478294041
10.97297627222095
10.97297627222095
10.97297627222095
10.97297627222095
10.97297627222095
9.705378805218585
5.980468451972229
1.1511100938429846
-4.320103761348897
-9.78997482261387
-10.984390020599678
-10.987411306935224
-10.988418402380407
-10.988754100862135
-10.988754100862135
-9.879270618753338
-6.540077821011673
-1.1239185168230716
5.4869916838330655
10.925978484779124
10.971633478294041
10.97297627222095
10.97297627222095
10.97297627222095
10.97297627222095
10.97431906614786
9.41264972915236
5.748165102616921
0.8859082932784007
-4.527901121538108
-9.897398336766614
-10.984390020599678
-10.987075608453498
-10.98808270389868
-10.988754100862135
-10.988754100862135
-9.773861295490958
-6.450782024872205
-1.1282825970855266
5.339955748836499
10.876295109483483
10.970290684367132
10.97297627222095
10.97297627222095
10.97297627222095
10.97297627222095
10.97431906614786
9.051438162813765
5.390981918059052
0.6089570458533609
-4.644388494697489
-9.898405432211794
-10.984725719081407
-10.987411306935224
-10.98808270389868
-10.988754100862135
-10.98908979934386
-9.469718471046006
-6.134218356603341
-0.8845654993514916
5.425894560158693
10.833325703822384
10.970290684367132
10.972640573739222
10.97297627222095
10.97297627222095
10.97297627222095
10.97297627222095
8.577431906614786
5.036484321355001
0.3380483710994125
-4.865278095674067
-9.999786373693446
-10.985061417563134
-10.987747005416953
-10.988418402380407
-10.98908979934386
-10.988754100862135
-9.275684748607613
-6.02780193789578
-0.7717708094911115
5.483634699015792
10.8064698252842
10.970290684367132
10.97297627222095
10.97297627222095
10.97297627222095
10.97297627222095
10.830640115968565
8.21622034027619
4.836408026245517
0.14703593499656673
-4.9592736705577165
-10.006164644846265
-10.984725719081407
-10.987411306935224
-10.988418402380407
-10.98908979934386
-10.988754100862135
-9.169939726863507
-5.95025558861677
-0.813061722743572
5.291615167467765
10.562081330586707
10.970290684367132
10.97297627222095
10.97297627222095
10.97297627222095
10.97297627222095
10.54059662775616
8.000030518043793
4.577248798352026
-0.10775921263447012
-5.154314488441291
-10.06726176852064
-10.984725719081407
-10.987411306935224
-10.988418402380407
-10.988754100862135
-10.988754100862135
-9.014847028305486
-5.748836499580377
-0.5723659113450827
5.4272373540856025
10.54328221560998
10.970290684367132
10.97297627222095
10.97297627222095
10.97431906614786
10.97297627222095
10.129030289158463
7.645532921339742
4.242221713588159
-0.33267719539177537
-5.226825360494392
-10.042084382391089
-10.984725719081407
-10.987747005416953
-10.988418402380407
-10.988754100862135
-10.97062638284886
-8.879224841687648
-5.616906996261539
-0.4223086900129701
5.498405432211794
10.488899061570153
10.970290684367132
10.972640573739222
10.97297627222095
10.97431906614786
10.97297627222095
9.841000991836424
7.491111619745174
4.102571145189593
-0.5079118028534371
-5.370840009155414
-10.103852903028915
-10.985061417563134
-10.987411306935224
-10.988418402380407
-10.988754100862135
-10.810833905546653
-8.713725490196076
-5.496726939803159
-0.43540093080033565
5.4188448920424195
10.35999084458686
10.970290684367132
10.97297627222095
10.97297627222095
10.97297627222095
10.97297627222095
9.612726024261844
7.2131532768749524
3.8293125810635535
-0.6220492866407263
-5.37990386816205
-10.084046692607004
-10.985061417563134
-10.987747005416953
-10.988418402380407
-10.988754100862135
-10.746044098573279
-8.651285572594794
-5.407766842145418
-0.3857175555046921
5.411123826962691
10.368047608148318
10.971633478294041
10.972640573739222
10.97297627222095
10.97297627222095
10.97297627222095
9.416006713969635
7.077531090257114
3.7004043640802626
-0.7496147096971084
-5.477592126344701
-10.17468528267338
-10.985397116044862
-10.987411306935224
-10.988754100862135
-10.988754100862135
-10.587930113679713
-8.473701075761044
-5.256031128404669
-0.2400244144350347
5.504448004882887
10.345891508354315
10.970290684367132
10.972304875257496
10.97297627222095
10.97297627222095
10.97431906614786
9.246143282215609
6.949965667200731
3.6064087891966126
-0.8368963149462119
-5.582330052643625
-10.30493629358358
-10.985397116044862
-10.98808270389868
-10.988418402380407
-10.988754100862135
-10.619150072480352
-8.53916227969787
-5.284229800869764
-0.22592507820248725
5.537346456092165
10.332463569085222
10.970290684367132
10.97297627222095
10.97297627222095
10.97297627222095
10.97431906614786
9.13200579842832
6.7915159838254375
3.394247348744945
-1.007431143663691
-5.685725185015641
-10.286808575570305
-10.985061417563134
-10.987747005416953
-10.988418402380407
-10.988754100862135
-10.433844510566871
-8.314244296940565
-4.994186312657359
0.02719157701991302
5.620599679560541
10.333806363012132
10.971633478294041
10.97297627222095
10.97297627222095
10.97297627222095
10.97297627222095
9.025925078202487
6.684092469672695
3.2747386892500185
-1.1551384756237124
-5.813290608072022
-10.42041657129778
-10.985061417563134
-10.987747005416953
-10.988754100862135
-10.98908979934386
-10.445929655909055
-8.333379110399024
-4.955916685740443
0.13394369420920116
5.705195696955825
10.375432974746317
10.971633478294041
10.97297627222095
10.97297627222095
10.97297627222095
10.97297627222095
8.840619516289006
6.472602426184481
3.098832684824903
-1.3203021286335546
-5.950591287098497
-10.505348287174792
-10.985397116044862
-10.987747005416953
-10.98808270389868
-10.988754100862135
-10.317021438925766
-8.125581750209813
-4.7810177767605095
0.29440756847486077
5.907957579919127
10.5066910811017
10.971633478294041
10.97297627222095
10.97297627222095
10.97297627222095
10.93269245441367
8.813763637750819
6.477302204928664
3.0048371099412523
-1.42235446707866
-6.048279545281146
-10.575173571374075
-10.985732814526589
-10.98808270389868
-10.988754100862135
-10.98908979934386
-10.333134966048673
-8.20581368734264
-4.795452811474784
0.31253528648813605
5.86498817425803
10.473456931410698
10.971633478294041
10.97297627222095
10.97297627222095
10.97297627222095
10.809155413138019
8.765423056382087
6.380621042191195
2.872236209658961
-1.5492484931715877
-6.162417029068437
-10.687296864271
-10.986068513008314
-10.987747005416953
-10.988754100862135
-10.988754100862135
-10.249210345616843
-8.116853589684903
-4.700785839627679
0.419958800640879
5.9697261005569535
10.520454718852521
10.970290684367132
10.97297627222095
10.97297627222095
10.97297627222095
10.731273365377278
8.715739681086443
6.379949645227741
2.854444190127413
-1.646601052872511
-6.283604180972
-10.745372701609828
-10.986068513008314
-10.987747005416953
-10.988754100862135
-10.98908979934386
-10.203219653620202
-8.139009689478906
-4.653788052185854
0.5696803234912642
6.156374456397344
10.650705729762722
10.971633478294041
10.97297627222095
10.97297627222095
10.97297627222095
10.633249408712903
8.598916609445334
6.214114595254443
2.6906233310444803
-1.7365682459754328
-6.33496604867628
-10.816205081254292
-10.985397116044862
-10.98808270389868
-10.988754100862135
-10.98908979934386
-10.14581521324483
-7.988616769665063
-4.453040360112916
0.7288014038300145
6.202029449912261
10.666819256885633
10.971633478294041
10.97297627222095
10.97297627222095
10.97297627222095
10.627878233005264
8.557289997711145
6.136232547493705
2.5721217669947354
-1.876890211337453
-6.447760738536659
-10.835339894712748
-10.985732814526589
-10.98808270389868
-10.988754100862135
-10.98908979934386
-10.132387273975738
-7.910734721904325
-4.351323720149538
0.8446173800259402
6.300053406576638
10.712474250400547
10.971633478294041
10.97297627222095
10.97431906614786
10.97297627222095
10.564766918440526
8.52774853131914
6.063721675440604
2.467719539177539
-2.00512703135729
-6.605203326466773
-10.903150988021668
-10.986068513008314
-10.98808270389868
-10.98908979934386
-10.98908979934386
-9.967223620965896
-7.876829175249865
-4.371129930571449
0.8778515297169451
6.442389562829022
10.827954528114747
10.971633478294041
10.97297627222095
10.97297627222095
10.97297627222095
10.429144731822689
8.433752956435493
5.995239185168231
2.36231021591516
-2.1206073090714885
-6.69584191653315
-10.905836575875485
-10.986404211490042
-10.98808270389868
-10.988418402380407
-10.98908979934386
-10.043091477836269
-7.851651789120317
-4.21704432745861
1.0792706187533379
6.541084916456855
10.84003967345693
10.970290684367132
10.97297627222095
10.97431906614786
10.97297627222095
10.38416113527123
8.351842526894025
5.897215228503853
2.266300450141146
-2.2246738384069578
-6.844556343938353
-10.924971389333944
-10.98673990997177
-10.987747005416953
-10.988754100862135
-10.98908979934386
-9.962188143739985
-7.727443350881209
-4.086457618066682
1.1806515602349887
6.619638361181049
10.85749599450675
10.971633478294041
10.97297627222095
10.97297627222095
10.97297627222095
10.346562905317768
8.315587090867474
5.819333180743114
2.180361638818952
-2.3226977950713357
-6.907667658503089
-10.927321278706033
-10.986068513008314
-10.988418402380407
-10.98908979934386
-10.98908979934386
-9.943053330281527
-7.641504539559013
-4.0045471885252155
1.2373846036469063
6.700205996795605
10.888380254825666
10.971633478294041
10.97297627222095
10.97297627222095
10.97297627222095
10.25995269703212
8.142366674296177
5.7199664301518265
2.093080033569848
-2.471076523994812
-7.0966659037155715
-10.943770504310674
-10.986404211490042
-10.98808270389868
-10.988754100862135
-10.988754100862135
-9.807095445181965
-7.586449988555734
-3.83099107347219
1.5009079118028534
6.882825970855267
10.927321278706033
10.970290684367132
10.972304875257496
10.97297627222095
10.97431906614786
10.234439612420843
8.179964904249637
5.6340276188296325
1.9111314564736401
-2.5993133440146488
-7.093644617380027
-10.948134584573127
-10.986068513008314
-10.988418402380407
-10.98908979934386
-10.988754100862135
-9.812130922407873
-7.5038681620508125
-3.7094682230869003
1.5774471656366826
6.942580300602732
10.93269245441367
10.971633478294041
10.972304875257496
10.97297627222095
10.97431906614786
10.16595712214847
8.145052262149994
5.581658655680171
1.8366063935301746
-2.694987411306935
-7.213488975356679
-10.95551995117113
-10.986404211490042
-10.988418402380407
-10.988754100862135
-10.98942549782559
-9.822201876859694
-7.502525368123902
-3.6379644464789807
1.7154192416266116
7.071824216067752
10.943434805828947
10.971633478294041
10.97297627222095
10.97297627222095
10.97431906614786
10.14581521324483
8.157808804455636
5.5689021133745324
1.773159380483711
-2.757091630426489
-7.342732890821697
-10.963576714732586
-10.986404211490042
-10.98808270389868
-10.988754100862135
-10.98908979934386
-9.69967193102922
-7.396108949416342
-3.557396810864423
1.8466773479819942
7.201739528496223
10.951491569390402
10.971633478294041
10.97297627222095
10.97297627222095
10.97297627222095
10.057190814068818
8.026886396581979
5.396353093766689
1.636530098420691
-2.8772716868848702
-7.458884565499351
-10.967269398031585
-10.98673990997177
-10.988418402380407
-10.988754100862135
-10.98908979934386
-9.611383230334935
-7.289692530708781
-3.384176394293125
1.994384679942016
7.276264591439689
10.95283436331731
10.972304875257496
10.97297627222095
10.97297627222095
10.97431906614786
10.000793469138628
7.955718318455786
5.329213397421225
1.6069886320286868
-2.8876783398184176
-7.518303196765088
-10.969619287403678
-10.98673990997177
-10.988418402380407
-10.988754100862135
-10.988754100862135
-9.590569924467841
-7.217853055619135
-3.2720531013962004
2.1185931181811246
7.352803845273517
10.95551995117113
10.972640573739222
10.97297627222095
10.97297627222095
10.97431906614786
9.951110093842985
7.930205233844511
5.305043106736858
1.5250782024872205
-3.0122224765392533
-7.646875715266652
-10.972640573739222
-10.987075608453498
-10.988418402380407
-10.988754100862135
-10.98942549782559
-9.65334554055085
-7.257465476462959
-3.265339131761654
2.193453879606317
7.501853971160448
10.959548332951858
10.97297627222095
10.97297627222095
10.97297627222095
10.97431906614786
9.944396124208438
7.849637598229953
5.200305180437933
1.4189974822613869
-3.1612726024261844
-7.764370183871214
-10.973647669184405
-10.98673990997177
-10.98808270389868
-10.988754100862135
-10.98908979934386
-9.541222247653923
-7.10942244602121
-3.0578774700541693
2.3441824979018846
7.5877927824826426
10.96156252384222
10.971633478294041
10.97297627222095
10.97297627222095
10.97297627222095
9.858457312886244
7.852323186083772
5.1586785687037455
1.2518196383611808
-3.252582589456016
-7.805325398641947
-10.97431906614786
-10.987075608453498
-10.988418402380407
-10.988754100862135
-10.98908979934386
-9.474082551308461
-7.053696498054474
-2.9628747997253373
2.473090714885176
7.693873502708476
10.962233920805676
10.97297627222095
10.97297627222095
10.97297627222095
10.97297627222095
9.818844892042419
7.68715953307393
4.99150072480354
1.1611810482948042
-3.3724269474326687
-7.971160448615244
-10.977004654001679
-10.987075608453498
-10.988418402380407
-10.988754100862135
-10.98908979934386
-9.365987640192262
-6.864026855878538
-2.7893186846723124
2.684580758373388
7.892607003891052
10.964919508659495
10.97297627222095
10.97297627222095
10.97297627222095
10.97297627222095
9.718806744487678
7.7073014419775685
4.9478599221789885
1.047043564507515
-3.4526588845655
-8.012115663385975
-10.977004654001679
-10.987075608453498
-10.988418402380407
-10.988754100862135
-10.98908979934386
-9.420706492713816
-7.012405584802013
-2.8437018387121387
2.6610818646524756
7.853665980010681
10.963576714732586
10.97297627222095
10.97297627222095
10.97297627222095
10.97297627222095
9.788632028686962
7.739528496223393
4.9424887464713505
1.0222018768596932
-3.4862287327382315
-8.075898374914168
-10.97801174944686
-10.987075608453498
-10.98808270389868
-10.988754100862135
-10.98908979934386
-9.33006790264744
-6.8123292896925305
-2.6476539253833824
2.80341802090486
7.936919203479057
10.964919508659495
10.971633478294041
10.97297627222095
10.97297627222095
10.97297627222095
9.701350423437859
7.647547112230106
4.844464789806973
0.879865720607309
-3.67556267643244
-8.204806591897459
-10.978347447928588
-10.987075608453498
-10.988418402380407
-10.988754100862135
-10.988754100862135
-9.331746395056076
-6.8123292896925305
-2.5657434958419163
2.9987945372701605
8.17190814068818
10.966262302586404
10.971633478294041
10.97297627222095
10.97297627222095
10.97297627222095
9.534843976501106
7.540794995040817
4.742412451361868
0.7731136034180208
-3.806485084306096
-8.358556496528571
-10.980025940337224
-10.987075608453498
-10.988418402380407
-10.988418402380407
-10.988754100862135
-9.250507362478064
-6.669657434958419
-2.407629510948348
3.0894331273365374
8.222934309910736
10.966933699549859
10.971633478294041
10.97297627222095
10.97297627222095
10.97297627222095
9.618097199969482
7.566308079652095
4.745769436179141
0.7029526207370107
-3.9226367589837494
-8.50559243152514
-10.980361638818952
-10.987075608453498
-10.988418402380407
-10.988754100862135
-10.98908979934386
-9.230365453574425
-6.608896009765774
-2.2676432440680556
3.313679713130388
8.410925459678035
10.967605096513314
10.971633478294041
10.97431906614786
10.97431906614786
10.97431906614786
9.529472800793469
7.46022735942626
4.557106889448386
0.5045548180361639
-4.0139467460135805
-8.542519264515144
-10.981368734264134
-10.987411306935224
-10.98808270389868
-10.988754100862135
-10.98908979934386
-9.191088731212329
-6.571969176775769
-2.2525368123903258
3.355977721828031
8.521034561684594
10.967605096513314
10.971633478294041
10.97297627222095
10.97297627222095
10.97297627222095
9.503959716182191
7.454856183718623
4.562478065156023
0.5065690089265278
-4.107270923933776
-8.720439459830624
-10.982040131227588
-10.987075608453498
-10.988418402380407
-10.988754100862135
-10.988754100862135
-9.142076752880142
-6.489387350270847
-2.0830090791180282
3.4962996871900516
8.578774700541697
10.967605096513314
10.971633478294041
10.972640573739222
10.97297627222095
10.97297627222095
9.422049286640725
7.334004730296788
4.401342793926909
0.36490424963759815
-4.173739223315785
-8.754009308003356
-10.98170443274586
-10.987411306935224
-10.988418402380407
-10.988754100862135
-10.977676050965131
-9.076615548943312
-6.412848096437018
-2.0256046387426565
3.566124971389334
8.694254978255893
10.967605096513314
10.971633478294041
10.972304875257496
10.97297627222095
10.97297627222095
9.388479438467995
7.27223620965896
4.360387579156176
0.3252918287937743
-4.252964065003433
-8.857740138857098
-10.982375829709316
-10.987411306935224
-10.98808270389868
-10.988754100862135
-10.94679179064622
-8.953078507667657
-6.229556725413901
-1.8547341115434501
3.678248264286259
8.71842526894026
10.967605096513314
10.971633478294041
10.972304875257496
10.97297627222095
10.97297627222095
9.277698939497977
7.207782101167315
4.3140611886778055
0.23028915846494238
-4.361730373083086
-8.947371633478292
-10.982375829709316
-10.987075608453498
-10.98808270389868
-10.988754100862135
-10.892408636606392
-8.99302662699321
-6.282597085526818
-1.7325398641947052
3.8977950713359273
8.913130388342108
10.968947890440223
10.971633478294041
10.972304875257496
10.97297627222095
10.97297627222095
9.314625772487982
7.212817578393225
4.169039444571603
0.03659113450827802
-4.519172961013199
-9.114213778896772
-10.98304722667277
-10.987411306935224
-10.988418402380407
-10.98908979934386
-10.899122606240939
-8.937300679026473
-6.106355382619974
-1.5633478294041352
4.022674906538492
8.969527733272297
10.968947890440223
10.971633478294041
10.972304875257496
10.97297627222095
10.97297627222095
9.281727321278707
7.1607843137254905
4.1032425421530485
-0.02752727550164034
-4.624917982757306
-9.238757915617608
-10.983382925154496
-10.987747005416953
-10.988418402380407
-10.988418402380407
-10.842053864347294
-8.939314869916839
-6.095948729686427
-1.4240329594872967
4.21066605630579
9.157518883039597
10.969619287403678
10.97297627222095
10.97297627222095
10.97297627222095
10.97297627222095
9.219287403677425
7.124528877698939
4.033417257953765
-0.16348516060120546
-4.750133516441596
-9.288441290913253
-10.983718623636225
-10.987747005416953
-10.988418402380407
-10.988754100862135
-10.785992217898832
-8.846662088960096
-5.96636911573968
-1.3303730830853742
4.218722819867247
9.105821316853591
10.968947890440223
10.97297627222095
10.972640573739222
10.97297627222095
10.97297627222095
9.176317998016327
7.033218890669108
3.944457160296025
-0.23129625391012437
-4.80350957503624
-9.370016021972992
-10.983382925154496
-10.987411306935224
-10.98908979934386
-10.98908979934386
-10.766857404440374
-8.882246128023194
-5.895201037613488
-1.184008545052262
4.367101548790722
9.26359960326543
10.970290684367132
10.97297627222095
10.97297627222095
10.97297627222095
10.97297627222095
9.146776531624322
6.97145037003128
3.859525444419013
-0.30380712596322573
-4.8763561455710684
-9.439505607690545
-10.984054322117952
-10.987411306935224
-10.988418402380407
-10.988754100862135
-10.714152742809185
-8.767437247272449
-5.801876859693293
-1.0987411306935224
4.448340581368734
9.333424887464712
10.970290684367132
10.97297627222095
10.97297627222095
10.97297627222095
10.97297627222095
9.07695124742504
6.970107576104372
3.850797283894102
-0.4139162279697871
-5.013656824597543
-9.61608300907912
-10.984390020599678
-10.987747005416953
-10.988418402380407
-10.98908979934386
-10.79237048905165
-8.862775616083008
-5.806576638437476
-0.9980315861753263
4.562478065156023
9.423392080567634
10.969619287403678
10.971633478294041
10.97297627222095
10.97297627222095
10.97297627222095
9.068894483863584
6.860669871061265
3.6789196612497133
-0.5351033798733501
-5.064682993820097
-9.600305180437934
-10.984390020599678
-10.987747005416953
-10.988418402380407
-10.98908979934386
-10.621499961852445
-8.644235904478524
-5.609185931181812
-0.8409246967269398
4.714213778896772
9.502616922255283
10.970290684367132
10.97297627222095
10.97297627222095
10.97297627222095
10.972640573739222
8.976241702906844
6.811657892729076
3.6064087891966126
-0.639505607690547
-5.225146868085756
-9.794003204394599
-10.985397116044862
-10.987747005416953
-10.988418402380407
-10.988754100862135
-10.58692301823453
-8.576760509651331
-5.516868848706797
-0.7093308918898298
4.871320668345159
9.651667048142214
10.970290684367132
10.97297627222095
10.97297627222095
10.97297627222095
10.97297627222095
8.882246128023194
6.731761654077974
3.57418173495079
-0.7029526207370107
-5.300007629510947
-9.837979705500876
-10.984725719081407
-10.98808270389868
-10.988418402380407
-10.988754100862135
-10.399603265430684
-8.392797741664758
-5.491020065613794
-0.7442435339894713
4.864606698710612
9.660730907148851
10.970290684367132
10.97297627222095
10.97431906614786
10.97297627222095
10.93537804226749
8.910444800488289
6.7075913633936075
3.4318455786984052
-0.8684519722285801
-5.440665293354696
-9.972594796673532
-10.984725719081407
-10.987747005416953
-10.988754100862135
-10.988754100862135
-10.531532768749521
-8.492164492256046
-5.308400091554131
-0.3964599069199664
5.153307392996109
9.82891584649424
10.970290684367132
10.97297627222095
10.97297627222095
10.97431906614786
10.896437018387122
8.837933928435186
6.599496452277408
3.301594567788205
-0.9940032043945983
-5.546074616617075
-10.043427176317998
-10.985061417563134
-10.98808270389868
-10.988418402380407
-10.98908979934386
-10.446265354390784
-8.44147402151522
-5.260059510185396
-0.3172350652323186
5.2174258030060265
9.901426718547341
10.970290684367132
10.97297627222095
10.97431906614786
10.97431906614786
10.836011291676202
8.803021286335545
6.606210421911955
3.2888380254825664
-1.0678568703746087
-5.6350347142748145
-10.107881284809643
-10.985061417563134
-10.987411306935224
-10.988754100862135
-10.988754100862135
-10.467078660257878
-8.43912413214313
-5.226489662012665
-0.23935301747158008
5.3748683909361405
10.033020523384451
10.970290684367132
10.97297627222095
10.97297627222095
10.97297627222095
10.763500419623103
8.725139238574807
6.4766308079652095
3.153551537346456
-1.1581597619592585
-5.702510109102007
-10.193820096131835
-10.985397116044862
-10.987747005416953
-10.988418402380407
-10.98908979934386
-10.405645838101776
-8.350499732967117
-5.093217364766919
-0.14267185473411154
5.390646219577324
10.019592584115358
10.970290684367132
10.97297627222095
10.97297627222095
10.97431906614786
10.791699092088196
8.741252765697718
6.452460517280842
3.0733196002136265
-1.253833829251545
-5.814297703517205
-10.31970702677958
-10.985732814526589
-10.987747005416953
-10.988754100862135
-10.98908979934386
-10.327092393377585
-8.233340962844283
-4.945510032806897
0.058411535820553896
5.582330052643625
10.174013885709927
10.970290684367132
10.971633478294041
10.97297627222095
10.97297627222095
10.72993057145037
8.668741893644617
6.318852521553368
2.939711604486152
-1.3914702067597469
-5.966033417257954
-10.489570458533606
-10.985732814526589
-10.987747005416953
-10.988754100862135
-10.98908979934386
-10.357976653696497
-8.300816357671472
-4.9740444037537195
0.09365987640192262
5.6917677576867325
10.288151369497214
10.970290684367132
10.972304875257496
10.97297627222095
10.97431906614786
10.618478675516899
8.660685130083161
6.3779354543373765
2.973952849622339
-1.4203402761882962
-6.010009918364232
-10.48554207675288
-10.985061417563134
-10.987747005416953
-10.98908979934386
-10.988754100862135
-10.248203250171661
-8.089997711146715
-4.717570763714045
0.33267719539177537
5.840146486610208
10.371404592965591
10.971633478294041
10.97297627222095
10.97297627222095
10.97431906614786
10.605050736247806
8.598916609445334
6.235599298084993
2.763805600061036
-1.6335088120851453
-6.205050736247807
-10.648691538872356
-10.986068513008314
-10.98808270389868
-10.988754100862135
-10.98908979934386
-10.18744182497902
-8.080598153658352
-4.674601358052949
0.42398718242160677
5.913328755626764
10.419745174334324
10.971633478294041
10.97297627222095
10.97297627222095
10.97431906614786
10.562081330586707
8.568703746089875
6.195315480277714
2.7013656824597545
-1.707698176546883
-6.265476462958724
-10.692668039978637
-10.985732814526589
-10.98808270389868
-10.988754100862135
-10.98908979934386
-10.1847562371252
-7.978210116731518
-4.514808880750744
0.6052643625543602
6.103334096284428
10.55805294880598
10.971633478294041
10.97297627222095
10.97297627222095
10.97297627222095
10.500312809948882
8.423682001983671
6.09057755397879
2.65302510109102
-1.7325398641947052
-6.345037003128099
-10.775921263447014
-10.986068513008314
-10.98808270389868
-10.988754100862135
-10.98908979934386
-10.093781948577094
-7.966124971389333
-4.530922407873654
0.556923781185626
6.014709697108415
10.501655603875792
10.971633478294041
10.97297627222095
10.97297627222095
10.97297627222095
10.453315022507056
8.408239871824215
6.01773098344396
2.5315022507057297
-1.837277790493629
-6.423254749370566
-10.828961623559929
-10.986068513008314
-10.98808270389868
-10.988754100862135
-10.98908979934386
-10.035034714274815
-7.862394140535592
-4.372472724498359
0.7570000762951096
6.159060044251164
10.55805294880598
10.971633478294041
10.97297627222095
10.97297627222095
10.97297627222095
10.488899061570153
8.447180895704586
5.983154039826046
2.447241931792172
-1.9420157167925538
-6.4766308079652095
-10.838361181048294
-10.986068513008314
-10.98808270389868
-10.988754100862135
-10.988754100862135
-10.041077286945905
-7.877836270695047
-4.251621271076524
0.9782253757534142
6.391363393606469
10.696360723277635
10.971633478294041
10.97297627222095
10.97297627222095
10.97297627222095
10.347234302281223
8.394811932555122
5.933470664530404
2.2965133134966047
-2.18304722667277
-6.726390478370335
-10.902143892576484
-10.986404211490042
-10.98808270389868
-10.988754100862135
-10.98908979934386
-9.960845349813075
-7.81002517738613
-4.182467383840696
1.0577859159227894
6.48535896849012
10.793041886015107
10.971633478294041
10.97297627222095
10.97297627222095
10.97297627222095
10.331120775158313
8.34244296940566
5.866330968184939
2.2206454566262304
-2.2287022201876856
-6.73847562371252
-10.902479591058212
-10.986068513008314
-10.98808270389868
-10.98908979934386
-10.988754100862135
-9.9967650873579
-7.804654001678492
-4.1136491950865945
1.1302967879758905
6.502143892576486
10.779613946746013
10.970290684367132
10.97297627222095
10.97297627222095
10.97297627222095
10.320378423743039
8.316929884794384
5.795162890058747
2.1185931181811246
-2.329411764705882
-6.83112840466926
-10.924299992370488
-10.986068513008314
-10.98808270389868
-10.988754100862135
-10.98908979934386
-9.860807202258334
-7.628412298771649
-3.9374074921797515
1.2927748531319143
6.669321736476691
10.869581139848934
10.971633478294041
10.97297627222095
10.97297627222095
10.97297627222095
10.27136644541085
8.283360036621652
5.774349584191653
2.09408712901503
-2.3831235217822533
-6.969771877622644
-10.94276340886549
-10.98673990997177
-10.988418402380407
-10.988418402380407
-10.98908979934386
-9.911833371480887
-7.659296559090563
-3.936064698252842
1.39482719157702
6.798229953459984
10.901808194094759
10.971633478294041
10.97297627222095
10.97297627222095
10.97297627222095
10.207583733882657
8.170565346761272
5.647455558098725
1.9641718165865565
-2.499275196459907
-7.027847714961472
-10.946120393682763
-10.98673990997177
-10.98808270389868
-10.988754100862135
-10.98908979934386
-9.782253757534141
-7.4870832379644465
-3.778286411841001
1.4841229877164872
6.813000686655985
10.889723048752575
10.970962081330585
10.97297627222095
10.97431906614786
10.97297627222095
10.200869764248111
8.192050049591819
5.654169527733272
1.931944762340734
-2.6365758754863813
-7.2393377584496825
-10.957534142061492
-10.98673990997177
-10.98808270389868
-10.988754100862135
-10.98908979934386
-9.735255970092318
-7.435385671778438
-3.6178225375753414
1.707698176546883
7.025162127107651
10.93403524834058
10.971633478294041
10.97297627222095
10.97297627222095
10.97297627222095
10.084046692607004
8.031586175326161
5.560845349813077
1.7828946364538034
-2.772198062104219
-7.331654840924697
-10.96156252384222
-10.986404211490042
-10.98808270389868
-10.98908979934386
-10.988754100862135
-9.666773479819943
-7.375295643549249
-3.5587396047913322
1.8386205844205383
7.162127107652399
10.946120393682763
10.971633478294041
10.97297627222095
10.97297627222095
10.97431906614786
10.042420080872816
8.052399481193255
5.4702067597467
1.6828564888990611
-2.879285877775234
-7.443442435339895
-10.966262302586404
-10.987075608453498
-10.98808270389868
-10.98908979934386
-10.988754100862135
-9.664423590447852
-7.349782558937972
-3.4620584420538645
1.9064316777294577
7.242694743266956
10.951491569390402
10.971633478294041
10.97297627222095
10.97297627222095
10.97431906614786
10.01690699626154
7.998687724116882
5.382925154497597
1.6150453955901427
-2.909498741130694
-7.514274814984359
-10.968276493476766
-10.986404211490042
-10.988418402380407
-10.988418402380407
-10.988754100862135
-9.646295872434576
-7.278614480811779
-3.3640344853894857
1.9963988708323797
7.355489433127337
10.95686274509804
10.971633478294041
10.97297627222095
10.973983367666131
10.97431906614786
9.955138475623713
7.953032730601969
5.314442664225223
1.4713664454108493
-3.0377355611505297
-7.596185244525825
-10.970962081330585
-10.98673990997177
-10.98808270389868
-10.98908979934386
-10.988754100862135
-9.597283894102388
-7.259479667353322
-3.327107652399481
2.1239642938887613
7.449485008010987
10.95686274509804
10.971633478294041
10.97297627222095
10.972304875257496
10.97297627222095
9.968566414892805
7.938261997405966
5.3171282520790415
1.546562905317769
-3.0256504158083466
-7.673060196841383
-10.972640573739222
-10.987075608453498
-10.98808270389868
-10.988754100862135
-10.98908979934386
-9.538872358281836
-7.169512474250399
-3.1961852445258256
2.2407873655298696
7.544823376821546
10.959548332951858
10.971633478294041
10.97297627222095
10.97297627222095
10.97297627222095
9.869199664301519
7.8415808346684965
5.135851071946288
1.3075455863279164
-3.2250553139543756
-7.837888151369498
-10.97566186007477
-10.987075608453498
-10.988418402380407
-10.988418402380407
-10.988754100862135
